wavenumber (/cm),upper baseline (/cm) (smaller area),main baseline (/cm),lower baseline (/cm) (larger area),absorbance - upper baseline (/cm),absorbance - main baseline (/cm),absorbance - lower baseline (/cm),
3.199378999999999905e+03,5.342033873450446890e-03,5.342033873446894177e-03,5.342033873439788749e-03,6.661338147750939243e-16,4.218847493575594854e-15,1.132427485117659671e-14
3.201307999999999993e+03,5.190803500422447314e-03,4.698784996085336729e-03,4.206766491748226144e-03,3.905206083565371245e-05,5.310705651727642973e-04,1.023089069509874882e-03
3.203235999999999876e+03,5.041130514856551059e-03,4.060799544862270238e-03,3.080468574870209864e-03,8.306342772835817456e-04,1.810965247277862566e-03,2.791296217269922941e-03
3.205164999999999964e+03,4.892859654321402019e-03,3.427415709145620326e-03,1.961971763966730009e-03,1.047825146617054060e-03,2.513269091792835752e-03,3.978713036971726069e-03
3.207092999999999847e+03,4.746144647027605856e-03,2.799290185495628691e-03,8.524357239583224555e-04,-1.343695902052965963e-04,1.812484871326680569e-03,3.759339332863986805e-03
3.209021000000000186e+03,4.600908245413926068e-03,2.176093347443952553e-03,-2.487215505251327841e-04,1.315947829078289999e-03,3.740762727048263514e-03,6.165577625017348851e-03
3.210949999999999818e+03,4.457076269963167192e-03,1.557505795341640464e-03,-1.342064679279886263e-03,3.016712130945897741e-03,5.916282605567424469e-03,8.815853080188951196e-03
3.212878000000000156e+03,4.314797846621143407e-03,9.441688848639273601e-04,-2.426460076897285489e-03,3.953403634425756152e-03,7.324032596182972199e-03,1.069466155794418505e-02
3.214806999999999789e+03,4.173925383663235067e-03,3.354463744038582718e-04,-3.503032634858627148e-03,4.996834936008220929e-03,8.835313945267597724e-03,1.267379295453008314e-02
3.216735999999999876e+03,4.034533060605749455e-03,-2.683423363860626409e-04,-4.571217733380095183e-03,6.053449929349419278e-03,1.035632532634123137e-02,1.465920072333526392e-02
3.218664000000000215e+03,3.896691988127809481e-03,-8.668880773194942435e-04,-5.630468142769018414e-03,6.198622917657048426e-03,1.096220298310435215e-02,1.572578304855387632e-02
3.220592999999999847e+03,3.760259177563174404e-03,-1.460811746466283978e-03,-6.681882670498850985e-03,6.887882181774052093e-03,1.210895310580351047e-02,1.733002402983607748e-02
3.222521000000000186e+03,3.625376083356446344e-03,-2.049497559827528903e-03,-7.724371203011060061e-03,8.450655883796454049e-03,1.412552952698042930e-02,1.980040317016396045e-02
3.224449000000000069e+03,3.491971594829834658e-03,-2.633254687587793796e-03,-8.758480970005422250e-03,7.721460474969910059e-03,1.384668675738753851e-02,1.997191303980516697e-02
3.226378000000000156e+03,3.359977669350033835e-03,-3.212382073119357528e-03,-9.784741815593633874e-03,7.585472876877608073e-03,1.415783261934699944e-02,2.073019236182127578e-02
3.228306000000000040e+03,3.229531159095078152e-03,-3.786279273307435744e-03,-1.080208970571305827e-02,9.186701702551647308e-03,1.620251213495416120e-02,2.321832256735978373e-02
3.230235000000000127e+03,3.100496746108127866e-03,-4.355541617197644655e-03,-1.181157998050430535e-02,1.088513269886581813e-02,1.834117106217159066e-02,2.579720942547825135e-02
3.232164000000000215e+03,2.972942473022044396e-03,-4.919870161415929033e-03,-1.281268279585745518e-02,1.080702673293143512e-02,1.869983936736940855e-02,2.659265200181093469e-02
3.234092000000000098e+03,2.846933313630284346e-03,-5.478976192059725747e-03,-1.380488569775373264e-02,8.965516279448304537e-03,1.729142578513831463e-02,2.561733529083232153e-02
3.236021000000000186e+03,2.722338553037495501e-03,-6.033439694636655304e-03,-1.478921794230991793e-02,1.104626618338011568e-02,1.980204443105426648e-02,2.855782267872752911e-02
3.237949000000000069e+03,2.599287371917391454e-03,-6.582685797708265341e-03,-1.576465896733481031e-02,1.216095898045443935e-02,2.134293215008009614e-02,3.052490531970664112e-02
3.239876999999999953e+03,2.477714796477847869e-03,-7.127003215178895346e-03,-1.673172122683830310e-02,1.192510065920071582e-02,2.152981867085745904e-02,3.113453668251686679e-02
3.241806000000000040e+03,2.357558920969005101e-03,-7.666670434139710721e-03,-1.769089978925109108e-02,1.178130756484363495e-02,2.180553691995235077e-02,3.182976627506373113e-02
3.243733999999999924e+03,2.238944323801117520e-03,-8.201127924038154049e-03,-1.864120017187786971e-02,1.305763167150642001e-02,2.349770391934569158e-02,3.393777616718540724e-02
3.245663000000000011e+03,2.121747960785569376e-03,-8.730930101357614603e-03,-1.958360816350257494e-02,1.430577605123861673e-02,2.515845411338180071e-02,3.601113217552676105e-02
3.247592000000000098e+03,2.006031737670888049e-03,-9.255798479006926982e-03,-2.051762869568563019e-02,1.573390520785300506e-02,2.699573542453082009e-02,3.825756564120952330e-02
3.249519999999999982e+03,1.891854491366196100e-03,-9.775464799359312451e-03,-2.144278409008748554e-02,1.754908692662626724e-02,2.921640621735177579e-02,4.088372550807994887e-02
3.251447999999999865e+03,1.779155850741620526e-03,-1.029020243411249425e-02,-2.235956071896794128e-02,1.873114549099896831e-02,3.080050377585308308e-02,4.286986206070853012e-02
3.253376999999999953e+03,1.667878512711329364e-03,-1.080027452814658062e-02,-2.326842756900759923e-02,1.897329752658771795e-02,3.144145056744562794e-02,4.390960360830664655e-02
3.255304999999999836e+03,1.558137850358409793e-03,-1.130515223532846392e-02,-2.416844232101844625e-02,1.993280723359192041e-02,3.279609731927879412e-02,4.565938740496877646e-02
3.257233999999999924e+03,1.449820024820969167e-03,-1.180535928771941911e-02,-2.506053860026113966e-02,2.012397570800394941e-02,3.337915502054433770e-02,4.663433433308605824e-02
3.259161999999999807e+03,1.343037340739705598e-03,-1.230037706732822755e-02,-2.594379147539704888e-02,2.175689667201774480e-02,3.540031108008567795e-02,4.904372548815449928e-02
3.261090999999999894e+03,1.237679027695115508e-03,-1.279071907807605157e-02,-2.681911718384988319e-02,2.298403810699212180e-02,3.701243621276328888e-02,5.104083431853712050e-02
3.263019999999999982e+03,1.133800854552280413e-03,-1.327612728915372742e-02,-2.768605543286106752e-02,2.411255151732238922e-02,3.852247966102839705e-02,5.293240780473573714e-02
3.264947999999999865e+03,1.031455521334212477e-03,-1.375635389921825436e-02,-2.854416331977027710e-02,2.458185923781219806e-02,3.936966865836466489e-02,5.415747807891668764e-02
3.266876000000000204e+03,9.305887937962609158e-04,-1.423165182368268944e-02,-2.939389244116341615e-02,2.427103889151782656e-02,3.943327950899677692e-02,5.459552012647750363e-02
3.268804999999999836e+03,8.311495057373718964e-04,-1.470226375114425110e-02,-3.023567700802942682e-02,2.567629238882962461e-02,4.120970564571124761e-02,5.674311890259642333e-02
3.270733000000000175e+03,7.332407564710763381e-04,-1.516770174803649951e-02,-3.106864425254585171e-02,2.830114592876975532e-02,4.420208843327733117e-02,6.010303093778668337e-02
3.272661999999999807e+03,6.367609809050378544e-04,-1.562844863385670635e-02,-3.189365824861845056e-02,2.890719385449336265e-02,4.517240346925510686e-02,6.143761308401685106e-02
3.274590999999999894e+03,5.417613452403102769e-04,-1.608426172000587684e-02,-3.271028478525472849e-02,3.029334386775184296e-02,4.691936693299803007e-02,6.354538999824688172e-02
3.276518999999999778e+03,4.482899468376544405e-04,-1.653490854735295557e-02,-3.351810704154800646e-02,3.093121001650267488e-02,4.791440851069328488e-02,6.489760700488833578e-02
3.278447999999999865e+03,3.562498236653333095e-04,-1.698085659185988305e-02,-3.431796300738554351e-02,3.026329706393626751e-02,4.760040347946148387e-02,6.493750989498714432e-02
3.280376000000000204e+03,2.657364035343334763e-04,-1.742164349163477510e-02,-3.510902338680743640e-02,3.140190785190954958e-02,4.908928774707865816e-02,6.677666764225131946e-02
3.282304000000000087e+03,1.767015890834500169e-04,-1.785750170580957530e-02,-3.589170500070437697e-02,3.428513578902336878e-02,5.231933908391639410e-02,7.035354237881119577e-02
3.284233000000000175e+03,8.910035099596314012e-05,-1.828865346670216496e-02,-3.666640728439851671e-02,3.644546963214057023e-02,5.482322344983869833e-02,7.320097726753505007e-02
3.286161000000000058e+03,3.023514816291594798e-06,-1.871465175330389030e-02,-3.743232702142584856e-02,3.793267558335799983e-02,5.665035085147818172e-02,7.536802611960013998e-02
3.288090000000000146e+03,-8.161821077834474636e-05,-1.913593847255246061e-02,-3.819025873433012919e-02,3.878240272577204717e-02,5.783672298754616303e-02,7.689104324932383161e-02
3.290018999999999778e+03,-1.647797964721142705e-04,-1.955229139213088274e-02,-3.893980298779453619e-02,4.067178177608932188e-02,6.005929337174809035e-02,7.944680496741174380e-02
3.291947000000000116e+03,-2.464192817877020047e-04,-1.996349850918921476e-02,-3.968057773659161569e-02,4.136490304159412545e-02,6.108198226899563821e-02,8.079906149639803914e-02
3.293875000000000000e+03,-3.265801614236174544e-04,-2.036977694064745492e-02,-4.041297371987262466e-02,4.316769754539606652e-02,6.321089432461990398e-02,8.325409110384507372e-02
3.295804000000000087e+03,-4.053028620325527243e-04,-2.077133357660976287e-02,-4.113736429119185800e-02,4.501194557777410399e-02,6.537797629235131414e-02,8.574400700693340927e-02
3.297731999999999971e+03,-4.825057633972562599e-04,-2.116775208049492818e-02,-4.185299839759615281e-02,4.583553751059277204e-02,6.652078382769044396e-02,8.720603014479166859e-02
3.299661000000000058e+03,-5.582689515133409941e-04,-2.155944367481676949e-02,-4.256061839812197434e-02,4.579838919493284255e-02,6.679956391823627104e-02,8.780073864154147589e-02
3.301588999999999942e+03,-6.325138746059444372e-04,-2.194600225112974812e-02,-4.325949062765488407e-02,4.645772100122802506e-02,6.777120937775182874e-02,8.908469775427696469e-02
3.303518000000000029e+03,-7.053175502291786358e-04,-2.232782880380757007e-02,-4.395034005738729377e-02,4.736782946459239252e-02,6.899034071817078395e-02,9.061285197175050765e-02
3.305447000000000116e+03,-7.766410859519901067e-04,-2.270472155681613202e-02,-4.463280202767982985e-02,4.923657216594312658e-02,7.116465263680726849e-02,9.309273310767096632e-02
3.307375000000000000e+03,-8.464486581809538279e-04,-2.307648896358394097e-02,-4.530652926898781629e-02,5.098465527156903487e-02,7.321469557697202202e-02,9.544473588237589734e-02
3.309302999999999884e+03,-9.147776247298011754e-04,-2.344332768475165807e-02,-4.597187774477617950e-02,5.390913204954084215e-02,7.643768210956269904e-02,9.896623216958722047e-02
3.311231999999999971e+03,-9.816622753677783919e-04,-2.380542415414410584e-02,-4.662918603292354192e-02,5.688972005086445627e-02,7.971348192964078372e-02,1.025372438084202198e-01
3.313159999999999854e+03,-1.047033263644969736e-03,-2.416240294773963626e-02,-4.727777263183696732e-02,5.928444069820759665e-02,8.239981038230226318e-02,1.055151800663995942e-01
3.315088999999999942e+03,-1.110958401790096417e-03,-2.451463437549072921e-02,-4.791831034919269428e-02,6.137747354219613705e-02,8.478114951589676984e-02,1.081848254895987349e-01
3.317016999999999825e+03,-1.173371411795631758e-03,-2.486175324151407295e-02,-4.855013507123651095e-02,6.425167627285577332e-02,8.794005810257421452e-02,1.116284399322966525e-01
3.318945999999999913e+03,-1.234337037448351992e-03,-2.520411962762025837e-02,-4.917390221779349702e-02,6.631718768632277605e-02,9.028697027649468243e-02,1.142567528666679211e-01
3.320875000000000000e+03,-1.293822523199317232e-03,-2.554155221405807197e-02,-4.978928190491949124e-02,6.749112437817395005e-02,9.173885406903270479e-02,1.159865837598941241e-01
3.322802999999999884e+03,-1.351798182341656940e-03,-2.587387991053713421e-02,-5.039596163873483192e-02,6.877462976823500718e-02,9.329671149643048444e-02,1.178187932246281822e-01
3.324731000000000222e+03,-1.408295235803436185e-03,-2.620127892141521642e-02,-5.099426260702699665e-02,7.172026825435307007e-02,9.651325193996485030e-02,1.213062356255766305e-01
3.326659999999999854e+03,-1.463341836470455348e-03,-2.652391522423869219e-02,-5.158448861200604085e-02,7.547976532792866067e-02,1.005403387156968975e-01,1.256009121034642462e-01
3.328588000000000193e+03,-1.516880911660578590e-03,-2.684145430754369954e-02,-5.216602770343037321e-02,7.992988773034226391e-02,1.052544611262253849e-01,1.305790345221120585e-01
3.330516999999999825e+03,-1.568967999834747218e-03,-2.715422556872315596e-02,-5.273948313761600559e-02,8.218228275898120661e-02,1.077675403278696153e-01,1.333527978967624650e-01
3.332445000000000164e+03,-1.619549096753214457e-03,-2.746190472445597663e-02,-5.330426035216184744e-02,8.498233229200202743e-02,1.108246879197047896e-01,1.366670435474106604e-01
3.334373999999999796e+03,-1.668676672434532549e-03,-2.776481094399407823e-02,-5.386094521555406800e-02,8.923081465909032950e-02,1.153269489306498752e-01,1.414230832022098650e-01
3.336302000000000135e+03,-1.716299791081343784e-03,-2.806263017215471223e-02,-5.440896055323030112e-02,9.456218292034290762e-02,1.209085133014162761e-01,1.472548436824918650e-01
3.338231000000000222e+03,-1.762467854269367251e-03,-2.835567135004790629e-02,-5.494887484582910986e-02,9.748722773402584973e-02,1.240804312298043888e-01,1.506736347255855923e-01
3.340159000000000106e+03,-1.807132994644966573e-03,-2.864363065063724179e-02,-5.548012830663218153e-02,1.005607073036117738e-01,1.273972049596040490e-01,1.542337026155989887e-01
3.342088000000000193e+03,-1.850341545340139504e-03,-2.892680678688908102e-02,-5.600327202844113117e-02,1.046698297776150755e-01,1.317462950191640170e-01,1.588227602607160671e-01
3.344016000000000076e+03,-1.892048707444082822e-03,-2.920490615990622985e-02,-5.651776361236926505e-02,1.109682273129135588e-01,1.382810847653757058e-01,1.655939422178387410e-01
3.345945000000000164e+03,-1.932297745646405218e-03,-2.947821725451493791e-02,-5.702413676338302650e-02,1.163336468181589423e-01,1.438795663270274749e-01,1.714254858358955635e-01
3.347873000000000047e+03,-1.971046929478692533e-03,-2.974645669995812369e-02,-5.752186647044155166e-02,1.190533110250868720e-01,1.468287207955663032e-01,1.746041305660497311e-01
3.349802000000000135e+03,-2.008336455188164393e-03,-3.000990275292458875e-02,-5.801146905066367765e-02,1.230054770080145632e-01,1.510070433057509875e-01,1.790086096034900764e-01
3.351730000000000018e+03,-2.044127660748351616e-03,-3.026828227079647604e-02,-5.849243688084726500e-02,1.266265750542522328e-01,1.548507296643003572e-01,1.830748842743511462e-01
3.353659000000000106e+03,-2.078457673965417030e-03,-3.052186328211980992e-02,-5.896526889027420282e-02,1.289272002504004977e-01,1.573706058585548906e-01,1.858140114667092835e-01
3.355586999999999989e+03,-2.111290901253948249e-03,-3.077038287241951053e-02,-5.942947484358640509e-02,1.312875501577975834e-01,1.599466421289631457e-01,1.886057341001300403e-01
3.357516000000000076e+03,-2.142661401977719038e-03,-3.101409884209882506e-02,-5.988553628222170744e-02,1.320752077763452936e-01,1.609466452164663997e-01,1.898180826565892820e-01
3.359443999999999960e+03,-2.172536650994594254e-03,-3.125275850482633899e-02,-6.033298035865897191e-02,1.342599330876834696e-01,1.633401549415152143e-01,1.924203767953478472e-01
3.361373000000000047e+03,-2.200947639225958596e-03,-3.148660943286518688e-02,-6.077227122650441515e-02,1.356792085087911159e-01,1.649648703024303442e-01,1.942505320960695725e-01
3.363302000000000135e+03,-2.227878487556456122e-03,-3.171552656123122205e-02,-6.120317463490998477e-02,1.352812548347959165e-01,1.647689029084706824e-01,1.942565509821494452e-01
3.365230000000000018e+03,-2.253316385709691616e-03,-3.193939505441356630e-02,-6.162547372312054961e-02,1.343047864348334564e-01,1.639908651035373310e-01,1.936769437722443143e-01
3.367157999999999902e+03,-2.277275678182810736e-03,-3.215833486199581870e-02,-6.203939404580971484e-02,1.365550819689664852e-01,1.664361411527794932e-01,1.963172003365933893e-01
3.369086999999999989e+03,-2.299767641428474008e-03,-3.237245570674929240e-02,-6.244514377207011080e-02,1.364591634915639506e-01,1.665318515568847690e-01,1.966045396222055874e-01
3.371014999999999873e+03,-2.320768955630381214e-03,-3.258153558675935813e-02,-6.284230221789144366e-02,1.341280862076282832e-01,1.643888528387572601e-01,1.946496194698893456e-01
3.372943999999999960e+03,-2.340301406383193950e-03,-3.278579138986792429e-02,-6.323128137335665144e-02,1.325082022788810487e-01,1.629536922623657791e-01,1.933991822458545062e-01
3.374871999999999844e+03,-2.358344742313001063e-03,-3.298501134230580334e-02,-6.361167794229949379e-02,1.322062074888485927e-01,1.628328740888413950e-01,1.934595406888350855e-01
3.376800999999999931e+03,-2.374917680573407353e-03,-3.317940210377301469e-02,-6.398388652697484247e-02,1.318763474041600992e-01,1.626808318273597065e-01,1.934853162505615343e-01
3.378728999999999814e+03,-2.390003038231558463e-03,-3.336876212863870705e-02,-6.434752121904629973e-02,1.330495088671045378e-01,1.640282679575116864e-01,1.950070270479192791e-01
3.380657999999999902e+03,-2.403616463999114217e-03,-3.355328784846189905e-02,-6.470295923292646023e-02,1.339359868723867253e-01,1.650856582568495101e-01,1.962353296413140713e-01
3.382585999999999785e+03,-2.415743843385165235e-03,-3.373278794575451656e-02,-6.504983204812653241e-02,1.338527993459879273e-01,1.651698434483572786e-01,1.964868875507292945e-01
3.384514999999999873e+03,-2.426397756659870453e-03,-3.390744862393724190e-02,-6.538849949121683380e-02,1.326650516169134431e-01,1.641461024841908145e-01,1.956271533514704064e-01
3.386443000000000211e+03,-2.435567157774265468e-03,-3.407708879365678456e-02,-6.571861042954019183e-02,1.337197522153297236e-01,1.653612738512122426e-01,1.970027954870956499e-01
3.388371999999999844e+03,-2.443261558556120150e-03,-3.424188443019549055e-02,-6.604050730183708140e-02,1.349907357135526897e-01,1.667893585851920601e-01,1.985879814568336510e-01
3.390300000000000182e+03,-2.449472981398859162e-03,-3.440166467234462289e-02,-6.635385636329260706e-02,1.353774735679520447e-01,1.673296652588978084e-01,1.992818569498457926e-01
3.392228999999999814e+03,-2.454207869688307397e-03,-3.455659526724019770e-02,-6.665898266479608480e-02,1.356974808369145746e-01,1.677998682344664649e-01,1.999022556320223520e-01
3.394157000000000153e+03,-2.457461314259390406e-03,-3.470651558181536700e-02,-6.695556984937311995e-02,1.355229353226177214e-01,1.677719895901736979e-01,2.000210438577314509e-01
3.396085999999999785e+03,-2.459236690055544017e-03,-3.485158113506958699e-02,-6.724392558008496223e-02,1.357923256261944767e-01,1.681846700712085196e-01,2.005770145162238949e-01
3.398014000000000124e+03,-2.459532156354971022e-03,-3.499164152207256961e-02,-6.752375088779061230e-02,1.391308423697135144e-01,1.716629517354311130e-01,2.041950611011491556e-01
3.399943000000000211e+03,-2.458348019658274097e-03,-3.512684203368277025e-02,-6.779533604770904276e-02,1.413109031923248660e-01,1.739793972063493621e-01,2.066478912203756346e-01
3.401871000000000095e+03,-2.455685507686045099e-03,-3.525704249311356620e-02,-6.805839947854330774e-02,1.430231757928974723e-01,1.758245327783249934e-01,2.086258897637547349e-01
3.403800000000000182e+03,-2.451541858496497639e-03,-3.538237796308241201e-02,-6.831321406767187909e-02,1.450213783567734227e-01,1.779522144613593371e-01,2.108830505659488042e-01
3.405728000000000065e+03,-2.445921368253056727e-03,-3.550271849494102128e-02,-6.855951562163120627e-02,1.471115860064229341e-01,1.801683831331108987e-01,2.132251802598010837e-01
3.407657000000000153e+03,-2.438818206570214642e-03,-3.561818892326584773e-02,-6.879755963996281309e-02,1.475136037480321294e-01,1.806929744647277625e-01,2.138723451814247278e-01
3.409585000000000036e+03,-2.430239738055117726e-03,-3.572866952755138215e-02,-6.902709931705253155e-02,1.495663934150108787e-01,1.828648232045071431e-01,2.161632529940082925e-01
3.411514000000000124e+03,-2.420177063879869195e-03,-3.583427491423485378e-02,-6.924837276459427926e-02,1.531614337542529514e-01,1.865755316046079360e-01,2.199896294549673614e-01
