wavenumber (/cm),baseline value (/cm),baseline-subtracted absorbance (/cm),
3.199378999999999905e+03,3.907645792299518916e-03,-4.884981308350688778e-15
3.201307999999999993e+03,3.816531775344245148e-03,7.370437434612853167e-04
3.203235999999999876e+03,3.733350733075013750e-03,1.246263541513581430e-03
3.205164999999999964e+03,3.658016378098594146e-03,2.295073548146397968e-03
3.207092999999999847e+03,3.590606817576613707e-03,2.870980978474602097e-03
3.209021000000000186e+03,3.531080953402820910e-03,3.427552057729599255e-03
3.210949999999999818e+03,3.479414045804318789e-03,3.957939932847764908e-03
3.212878000000000156e+03,3.435659663379553308e-03,5.392046598931887758e-03
3.214806999999999789e+03,3.399772417758128995e-03,6.073863571063764510e-03
3.216735999999999876e+03,3.371777048716495528e-03,6.275939291931376118e-03
3.218664000000000215e+03,3.351681933438044325e-03,6.197541576571818922e-03
3.220592999999999847e+03,3.339466226371712310e-03,6.356351264122483968e-03
3.222521000000000186e+03,3.335142592842288423e-03,6.885206484073425059e-03
3.224449000000000069e+03,3.338702655661052177e-03,7.765791366053154121e-03
3.226378000000000156e+03,3.350154395974414001e-03,7.726853254399035364e-03
3.228306000000000040e+03,3.369485940540428714e-03,8.942117889227052530e-03
3.230235000000000127e+03,3.396717342830868347e-03,9.178297545620495157e-03
3.232164000000000215e+03,3.431840621697546112e-03,9.090492055016774486e-03
3.234092000000000098e+03,3.474831433411651460e-03,9.047501243302669138e-03
3.236021000000000186e+03,3.525734374255407033e-03,9.809736787960154913e-03
3.237949000000000069e+03,3.584496667720316054e-03,1.066031527968913650e-02
3.239876999999999953e+03,3.651142657531636360e-03,1.114110618575026024e-02
3.241806000000000040e+03,3.725713045753309416e-03,1.110776535453972258e-02
3.243733999999999924e+03,3.808130517311880681e-03,1.067031558649489398e-02
3.245663000000000011e+03,3.898480567512407902e-03,1.014934571862058377e-02
3.247592000000000098e+03,3.996722494287396898e-03,1.181252208860694708e-02
3.249519999999999982e+03,4.102799232997611512e-03,1.323881055215059277e-02
3.251447999999999865e+03,4.216759668052461052e-03,1.369748285336447324e-02
3.253376999999999953e+03,4.338669042205367532e-03,1.324802755406606636e-02
3.255304999999999836e+03,4.468400959011020745e-03,1.311829563726041314e-02
3.257233999999999924e+03,4.606089995141005033e-03,1.377083977717985519e-02
3.259161999999999807e+03,4.751593393695685563e-03,1.510501936914288024e-02
3.261090999999999894e+03,4.905062091802747659e-03,1.621134269082613599e-02
3.263019999999999982e+03,5.066422666489600601e-03,1.752737457571162949e-02
3.264947999999999865e+03,5.235585332190595409e-03,1.838666030434810139e-02
3.266876000000000204e+03,5.412631694239777858e-03,1.895403649944737978e-02
3.268804999999999836e+03,5.597659716302771926e-03,2.010667854930714427e-02
3.270733000000000175e+03,5.790477560100981691e-03,2.287322668654345748e-02
3.272661999999999807e+03,5.991285244141053568e-03,2.503395640687333668e-02
3.274590999999999894e+03,6.199984804759139934e-03,2.730590185977010975e-02
3.276518999999999778e+03,6.416461915705440333e-03,2.770557757304814572e-02
3.278447999999999865e+03,6.640941138300604507e-03,2.939369168958894107e-02
3.280376000000000204e+03,6.873189730995932223e-03,3.138325811361442064e-02
3.282304000000000087e+03,7.113322020037671223e-03,3.288163881188310711e-02
3.284233000000000175e+03,7.361468690010752880e-03,3.502709697951145174e-02
3.286161000000000058e+03,7.617372460801519196e-03,3.710295371080496452e-02
3.288090000000000146e+03,7.881298792751678661e-03,3.998163583549496636e-02
3.290018999999999778e+03,8.153117001278076259e-03,4.361288235737292851e-02
3.291947000000000116e+03,8.432680039218709567e-03,4.532379071070113952e-02
3.293875000000000000e+03,8.720126773505754159e-03,4.729709801920112255e-02
3.295804000000000087e+03,9.015612429411845596e-03,4.965862825957989557e-02
3.297731999999999971e+03,9.318830645446141148e-03,5.125426019701162517e-02
3.299661000000000058e+03,9.630095963329310393e-03,5.271357529966902433e-02
3.301588999999999942e+03,9.949085661112633261e-03,5.494852760564228333e-02
3.303518000000000029e+03,1.027613064097288031e-02,5.680664914738242643e-02
3.305447000000000116e+03,1.061106749740758914e-02,5.943336880292671154e-02
3.307375000000000000e+03,1.095371646234077900e-02,6.253796891032825656e-02
3.309302999999999884e+03,1.130424912362215650e-02,6.547663868617226157e-02
3.311231999999999971e+03,1.166285342743655917e-02,6.766281426233389240e-02
3.313159999999999854e+03,1.202915757046518763e-02,7.012989689836057750e-02
3.315088999999999942e+03,1.240354153625666811e-02,7.319589041206908675e-02
3.317016999999999825e+03,1.278561716103432389e-02,7.687034509101575708e-02
3.318945999999999913e+03,1.317578078880288217e-02,8.002363283527502702e-02
3.320875000000000000e+03,1.357383629314945495e-02,8.426848355659188883e-02
3.322802999999999884e+03,1.397957118507520136e-02,8.913555090022429184e-02
3.324731000000000222e+03,1.439318977334735905e-02,9.528430346958582930e-02
3.326659999999999854e+03,1.481491272507184931e-02,1.020731719329517340e-01
3.328588000000000193e+03,1.524430279509303432e-02,1.084397871769624544e-01
3.330516999999999825e+03,1.568180540879460239e-02,1.149998566004590828e-01
3.332445000000000164e+03,1.612696696056481471e-02,1.229036803434802039e-01
3.334373999999999796e+03,1.658024923624346059e-02,1.313399486656301463e-01
3.336302000000000135e+03,1.704118226976092387e-02,1.397204650800949466e-01
3.338231000000000222e+03,1.751024420741842391e-02,1.493892931053308892e-01
3.340159000000000106e+03,1.798694872268313816e-02,1.608622885305122097e-01
3.342088000000000193e+03,1.847179032231771600e-02,1.727348613795469667e-01
3.344016000000000076e+03,1.896426631933323392e-02,1.858504297272105532e-01
3.345945000000000164e+03,1.946488758094488958e-02,1.979546002563354890e-01
3.347873000000000047e+03,1.997313505970588210e-02,2.111987005717930188e-01
3.349802000000000135e+03,2.048953598329639192e-02,2.252019753090213072e-01
3.351730000000000018e+03,2.101355494380641176e-02,2.374751527386345096e-01
3.353659000000000106e+03,2.154573552937222303e-02,2.458141985033366339e-01
3.355586999999999989e+03,2.208552597163127018e-02,2.524964521308930010e-01
3.357516000000000076e+03,2.263348621917415926e-02,2.585818695002815026e-01
3.359443999999999960e+03,2.318904814318223373e-02,2.608986333813949621e-01
3.361373000000000047e+03,2.375278805270220062e-02,2.585116308395973839e-01
3.363302000000000135e+03,2.432441983880018199e-02,2.528779256648876483e-01
3.365230000000000018e+03,2.490364102995634710e-02,2.440069824525670228e-01
3.367157999999999902e+03,2.549074591746069984e-02,2.343608276772983778e-01
3.369086999999999989e+03,2.608604515093659870e-02,2.230595868065514686e-01
3.371014999999999873e+03,2.668892152018820241e-02,2.113682501322009522e-01
3.372943999999999960e+03,2.730000041564117907e-02,1.995999950032967263e-01
3.374871999999999844e+03,2.791864826664181010e-02,1.864246565114053844e-01
3.376800999999999931e+03,2.854550682407186457e-02,1.737244093424950009e-01
3.378728999999999814e+03,2.917992615681974655e-02,1.635155706593423020e-01
3.380657999999999902e+03,2.982256437622865519e-02,1.525288946919833855e-01
3.382585999999999785e+03,3.047275519072556449e-02,1.423432235531474355e-01
3.384514999999999873e+03,3.113117307211155094e-02,1.329029100283509734e-01
3.386443000000000211e+03,3.179713536835571119e-02,1.246415471182444890e-01
3.388371999999999844e+03,3.247133291171877545e-02,1.174278837266977682e-01
3.390300000000000182e+03,3.315306668971196302e-02,1.107770263058442950e-01
3.392228999999999814e+03,3.384304389505210509e-02,1.046378759821751103e-01
3.394157000000000153e+03,3.454054915479254362e-02,1.005526754546717250e-01
3.396085999999999785e+03,3.524630602211153985e-02,9.677989765189964899e-02
3.398014000000000124e+03,3.595958276360100569e-02,9.312557917693675691e-02
3.399943000000000211e+03,3.668111929289530337e-02,9.055100311307828775e-02
3.401871000000000095e+03,3.741016751613379654e-02,9.028922320263443879e-02
3.403800000000000182e+03,3.814748370740694838e-02,8.996878364336513556e-02
3.405728000000000065e+03,3.889230341239269251e-02,9.004397401671537793e-02
3.407657000000000153e+03,3.964539926564114580e-02,8.982915293555926439e-02
3.409585000000000036e+03,4.040599045237591724e-02,9.151942986005234815e-02
3.411514000000000124e+03,4.117486596760322470e-02,9.422070872661070240e-02
3.413442000000000007e+03,4.195122863608702346e-02,9.748942370712621042e-02
3.415371000000000095e+03,4.273588381328963237e-02,1.016385721856107871e-01
3.417298999999999978e+03,4.352801796352245844e-02,1.070789727369221289e-01
3.419228000000000065e+03,4.432845280270392152e-02,1.120896149053907109e-01
3.421155999999999949e+03,4.513635843468222220e-02,1.191038724508368674e-01
3.423085000000000036e+03,4.595257293584253944e-02,1.285973377334510559e-01
3.425012999999999920e+03,4.677625004956986743e-02,1.397233605601688744e-01
3.426942000000000007e+03,4.760824421270548612e-02,1.523207493279974400e-01
3.428869999999999891e+03,4.844769280818184143e-02,1.671439513349306516e-01
3.430798999999999978e+03,4.929546663329631428e-02,1.828796215521455437e-01
3.432726999999999862e+03,5.015068671051992055e-02,2.036515946583015158e-01
3.434655999999999949e+03,5.101424019761147122e-02,2.274982890066583607e-01
3.436583999999999833e+03,5.188523175658410480e-02,2.548031186030290662e-01
3.438512999999999920e+03,5.276456490565273327e-02,2.842779015380689778e-01
3.440440999999999804e+03,5.365132794637261782e-02,3.129573119363522338e-01
3.442369999999999891e+03,5.454644075742010045e-02,3.319531698523192631e-01
3.444297999999999774e+03,5.544897527988901231e-02,3.350750982003440903e-01
3.446226999999999862e+03,5.635986775291179640e-02,3.237170940868430158e-01
3.448155000000000200e+03,5.727817375712973558e-02,3.076537974738013936e-01
3.450083999999999833e+03,5.820484589212959747e-02,2.953500581346237830e-01
3.452012000000000171e+03,5.913892337809478761e-02,2.869694645462259608e-01
3.453940999999999804e+03,6.008137517507172731e-02,2.846870521463817916e-01
3.455869000000000142e+03,6.103122414278772112e-02,2.831943473446831838e-01
3.457797999999999774e+03,6.198945560174173863e-02,2.819612521723202647e-01
3.459726000000000113e+03,6.295507605120498340e-02,2.815980413614114219e-01
3.461655000000000200e+03,6.392908717213785508e-02,2.772706929368911055e-01
3.463583000000000084e+03,6.491047910334835080e-02,2.623857781690874802e-01
3.465512000000000171e+03,6.590026988625830029e-02,2.358863442508987163e-01
3.467440000000000055e+03,6.689743329921782333e-02,2.049381982001641234e-01
3.469369000000000142e+03,6.790300374410485063e-02,1.774357657826715062e-01
3.471297000000000025e+03,6.891593863880984827e-02,1.591155790669942505e-01
3.473226000000000113e+03,6.993728874567572973e-02,1.468454314888747447e-01
3.475153999999999996e+03,7.096599512213153105e-02,1.360705159411330634e-01
3.477083000000000084e+03,7.200312489097449031e-02,1.276762007767149321e-01
3.479010999999999967e+03,7.304760274917754259e-02,1.192836996467181443e-01
3.480940000000000055e+03,7.410051217999757966e-02,1.104361134098139630e-01
3.482867999999999938e+03,7.516076151994788290e-02,1.038969140492489451e-01
3.484797000000000025e+03,7.622945061274677414e-02,9.922751031079490858e-02
3.486724999999999909e+03,7.730547143444610469e-02,9.303902441969258419e-02
3.488653999999999996e+03,7.838994018922029738e-02,8.717192705160625721e-02
3.490581999999999880e+03,7.948173249266865525e-02,8.161818046715563213e-02
3.492510999999999967e+03,8.058198090942170211e-02,7.603536299089475037e-02
3.494438999999999851e+03,8.168954469461731094e-02,7.027802138720051772e-02
3.496367999999999938e+03,8.280557277334743560e-02,6.617514095609511315e-02
3.498295999999999822e+03,8.392890804029207175e-02,6.363625756509527776e-02
3.500224999999999909e+03,8.506071578099927422e-02,6.069722090872531339e-02
3.502152999999999793e+03,8.619982252969116132e-02,5.798451940076843059e-02
3.504081999999999880e+03,8.734740993237366524e-02,5.421656459692192342e-02
3.506010000000000218e+03,8.850228816281635602e-02,5.377175095945219141e-02
3.507938999999999851e+03,8.966565522747771411e-02,5.331157689492860285e-02
3.509867000000000189e+03,9.083630493966765584e-02,5.167594940088804378e-02
3.511795999999999822e+03,9.201545166630609174e-02,5.101904372972665413e-02
3.513724000000000160e+03,9.320187286024506079e-02,5.034112040559390877e-02
3.515652999999999793e+03,9.439679924885879814e-02,5.000285259043790731e-02
3.517581000000000131e+03,9.559899192454679451e-02,5.130191970676900581e-02
3.519510000000000218e+03,9.680969797513938602e-02,5.101429762704157156e-02
3.521438000000000102e+03,9.802766213257285699e-02,4.905420144340455479e-02
3.523367000000000189e+03,9.925414784514430266e-02,4.727111671118011671e-02
3.525295000000000073e+03,1.004878834843268010e-01,4.812863582484938618e-02
3.527224000000000160e+03,1.017301488588753244e-01,4.785068397817626717e-02
3.529152000000000044e+03,1.029796559798068500e-01,4.609955058027415120e-02
3.531081000000000131e+03,1.042377010163324513e-01,4.416579891495109322e-02
3.533009000000000015e+03,1.055029796190112279e-01,4.333801172278173297e-02
3.534938000000000102e+03,1.067768043175156834e-01,4.234363179957600920e-02
3.536865999999999985e+03,1.080578544019417109e-01,4.062967136653128364e-02
3.538795000000000073e+03,1.093474587624232441e-01,4.142903122795615900e-02
3.540722999999999956e+03,1.106442803285982990e-01,4.127060354148248678e-02
3.542652000000000044e+03,1.119496643510569100e-01,3.787854582806238213e-02
3.544579999999999927e+03,1.132622573989792158e-01,3.142600133939632556e-02
3.546509000000000015e+03,1.145834210834166811e-01,2.834570988914286715e-02
3.548436999999999898e+03,1.159117856130880142e-01,2.903759365302605033e-02
3.550365999999999985e+03,1.172487289595007809e-01,2.773500827078922981e-02
3.552293999999999869e+03,1.185928649709211413e-01,2.589840810617838329e-02
3.554222999999999956e+03,1.199455879793092095e-01,2.461211049519684835e-02
3.556150999999999840e+03,1.213054954724803736e-01,2.241386867612948919e-02
3.558079999999999927e+03,1.226739981428455195e-01,2.051854388839746690e-02
3.560007999999999811e+03,1.240496771177639346e-01,1.853358368208946061e-02
3.561936999999999898e+03,1.254339594501079347e-01,1.633845339519002238e-02
3.563864999999999782e+03,1.268254099067736007e-01,1.253965491525210751e-02
3.565793999999999869e+03,1.282254719010946786e-01,4.968902554904008895e-03
3.567722000000000207e+03,1.296326938395093720e-01,1.887302495640952316e-03
3.569650999999999840e+03,1.310485354958093041e-01,6.458908729762402601e-03
3.571579000000000178e+03,1.324715289159712484e-01,7.177561743243465742e-03
3.573507999999999811e+03,1.339031502342464819e-01,6.559078910469473556e-03
3.575436000000000149e+03,1.353419151361574535e-01,5.738757363728197447e-03
3.577364999999999782e+03,1.367893161164115412e-01,4.898347083918341838e-03
3.579293000000000120e+03,1.382438525000697638e-01,3.562918309403695361e-03
3.581222000000000207e+03,1.397070331423027056e-01,3.194611458915641578e-03
3.583150000000000091e+03,1.411773410077081792e-01,3.701031799108189801e-03
3.585079000000000178e+03,1.426563013119181988e-01,8.156854946239633364e-04
3.587007000000000062e+03,1.441423806590726997e-01,-4.809383270278022593e-03
3.588936000000000149e+03,1.456371206252597972e-01,-1.182496043281577869e-03
3.590864000000000033e+03,1.471389714541615490e-01,1.417994050442406007e-03
3.592793000000000120e+03,1.486494910823257243e-01,-5.358655165554893074e-05
3.594721000000000004e+03,1.501671133929765034e-01,-1.866687354220353257e-03
3.596650000000000091e+03,1.516934126831195329e-01,-1.216982246543985013e-03
3.598577999999999975e+03,1.532268064755175629e-01,-5.056557127707250743e-04
