wavenumber (/cm),baseline value (/cm),baseline-subtracted absorbance (/cm),
3.199378999999999905e+03,1.575712423168340592e-03,2.220446049250313081e-15
3.201307999999999993e+03,1.355252846356513885e-03,-5.531171289665515189e-04
3.203235999999999876e+03,1.139640057552959718e-03,-1.139640057552959718e-03
3.205164999999999964e+03,9.286503920407085388e-04,-6.905551539451160181e-04
3.207092999999999847e+03,7.225026053063743348e-04,-6.268920012209022730e-04
3.209021000000000186e+03,5.210860926139204707e-04,1.028662262538837524e-04
3.210949999999999818e+03,3.243000664259199084e-04,9.118084578183527356e-04
3.212878000000000156e+03,1.323485558009096508e-04,1.321988068027302177e-03
3.214806999999999789e+03,-5.496755908485084774e-05,7.369691732903582704e-04
3.216735999999999876e+03,-2.375474906948227272e-04,7.882397363023763148e-04
3.218664000000000215e+03,-4.153002712277142905e-04,6.686062872458542472e-04
3.220592999999999847e+03,-5.884102915363342845e-04,1.600703083490362388e-03
3.222521000000000186e+03,-7.566980700017822414e-04,2.017019669306563401e-03
3.224449000000000069e+03,-9.202545744244616799e-04,2.093036594664532402e-03
3.226378000000000156e+03,-1.079160955408831057e-03,2.324582200829983236e-03
3.228306000000000040e+03,-1.233252457764955068e-03,3.011671778557545309e-03
3.230235000000000127e+03,-1.382688927447084382e-03,2.990064602619302292e-03
3.232164000000000215e+03,-1.527389213853425076e-03,3.392727265632444755e-03
3.234092000000000098e+03,-1.667281986117430392e-03,4.148811755783299304e-03
3.236021000000000186e+03,-1.802512361221531023e-03,5.066000285726346419e-03
3.237949000000000069e+03,-1.932940131418092733e-03,5.306007741774365627e-03
3.239876999999999953e+03,-2.058636627570997746e-03,5.108863237119898315e-03
3.241806000000000040e+03,-2.179663363352624117e-03,5.209091562272671894e-03
3.243733999999999924e+03,-2.295894857436309167e-03,5.907988978005374037e-03
3.245663000000000011e+03,-2.407451681916583652e-03,5.774310811487826101e-03
3.247592000000000098e+03,-2.514272323119293162e-03,6.890940852330551536e-03
3.249519999999999982e+03,-2.616305087114412231e-03,7.800076118343213238e-03
3.251447999999999865e+03,-2.713606577063210068e-03,8.147579383917413764e-03
3.253376999999999953e+03,-2.806223578941668961e-03,7.939085067735440759e-03
3.255304999999999836e+03,-2.894060066825687727e-03,9.359882380105766231e-03
3.257233999999999924e+03,-2.977207157401906557e-03,1.093120231478739157e-02
3.259161999999999807e+03,-3.055578643217593537e-03,1.144478830361395083e-02
3.261090999999999894e+03,-3.129255822494236838e-03,1.201203970527808806e-02
3.263019999999999982e+03,-3.198196818492426985e-03,1.308147737973897051e-02
3.264947999999999865e+03,-3.262369574216883450e-03,1.356503301247391491e-02
3.266876000000000204e+03,-3.321811055897683218e-03,1.582382881215282922e-02
3.268804999999999836e+03,-3.376548412573399105e-03,1.781685386982800878e-02
3.270733000000000175e+03,-3.426524892186755267e-03,1.915260671996366071e-02
3.272661999999999807e+03,-3.471792337559342911e-03,1.941951692935184326e-02
3.274590999999999894e+03,-3.512323599657030115e-03,2.030471200221484196e-02
3.276518999999999778e+03,-3.548101349179155761e-03,2.208507285225236316e-02
3.278447999999999865e+03,-3.579162699974602901e-03,2.428289399692618034e-02
3.280376000000000204e+03,-3.605475447428396762e-03,2.534943769986552908e-02
3.282304000000000087e+03,-3.627056920840310283e-03,2.755609398547065325e-02
3.284233000000000175e+03,-3.643914632311506807e-03,2.926445228674756649e-02
3.286161000000000058e+03,-3.656031103655976722e-03,3.154576848491874586e-02
3.288090000000000146e+03,-3.663418903824933182e-03,3.335671995305844462e-02
3.290018999999999778e+03,-3.666070520718989201e-03,3.533832482009202636e-02
3.291947000000000116e+03,-3.663988261971340421e-03,3.673935921869819765e-02
3.293875000000000000e+03,-3.657174729180034944e-03,3.828373460997758215e-02
3.295804000000000087e+03,-3.645622706748952169e-03,4.001179890343387058e-02
3.297731999999999971e+03,-3.629344171890203086e-03,4.261891392417194169e-02
3.299661000000000058e+03,-3.608322238156880246e-03,4.554754121127446709e-02
3.301588999999999942e+03,-3.582578701231575735e-03,4.791609828898835133e-02
3.303518000000000029e+03,-3.552086856198677367e-03,4.932131762542990572e-02
3.305447000000000116e+03,-3.516858827889102201e-03,5.131719408585189157e-02
3.307375000000000000e+03,-3.476916560870790818e-03,5.309633668876578838e-02
3.309302999999999884e+03,-3.432243019810599094e-03,5.582437066617584875e-02
3.311231999999999971e+03,-3.382811352175885133e-03,5.797367246846096833e-02
3.313159999999999854e+03,-3.328672809048249803e-03,6.085055770381497808e-02
3.315088999999999942e+03,-3.269771230111295779e-03,6.422308345461003043e-02
3.317016999999999825e+03,-3.206167684916216842e-03,6.794541149195687524e-02
3.318945999999999913e+03,-3.137796194679687289e-03,7.178745162399646773e-02
3.320875000000000000e+03,-3.064688521165592761e-03,7.551082995035773848e-02
3.322802999999999884e+03,-2.986886245879283308e-03,7.982056104565593557e-02
3.324731000000000222e+03,-2.904352696548428980e-03,8.608744079489083489e-02
3.326659999999999854e+03,-2.817041383710972013e-03,9.213317722527047948e-02
3.328588000000000193e+03,-2.725042832312674079e-03,9.927933599677540855e-02
3.330516999999999825e+03,-2.628261608172977049e-03,1.056955615398802450e-01
3.332445000000000164e+03,-2.526798054708123686e-03,1.128899941806165153e-01
3.334373999999999796e+03,-2.420546919267074770e-03,1.208985378548854683e-01
3.336302000000000135e+03,-2.309618363735665980e-03,1.299295972549012745e-01
3.338231000000000222e+03,-2.193897316994153357e-03,1.384442853470435608e-01
3.340159000000000106e+03,-2.073503759394412782e-03,1.486805690105277300e-01
3.342088000000000193e+03,-1.948312801353324630e-03,1.610983717819207683e-01
3.344016000000000076e+03,-1.818454241684364092e-03,1.725398797088728564e-01
3.345945000000000164e+03,-1.683793372342812233e-03,1.843267436424116390e-01
3.347873000000000047e+03,-1.544469810608184446e-03,1.977746802781066293e-01
3.349802000000000135e+03,-1.400339029963504345e-03,2.101791308596032692e-01
3.351730000000000018e+03,-1.251550466161432951e-03,2.202879942483679798e-01
3.353659000000000106e+03,-1.097949774217177321e-03,2.295840117348557641e-01
3.355586999999999989e+03,-9.396962083485504991e-04,2.375967397297991113e-01
3.357516000000000076e+03,-7.766256051020548057e-04,2.419717581561671160e-01
3.359443999999999960e+03,-6.089070371650961988e-04,2.438599780001005080e-01
3.361373000000000047e+03,-4.363665226199131553e-04,2.432224222747776388e-01
3.363302000000000135e+03,-2.590898247953887790e-04,2.406170087420367310e-01
3.365230000000000018e+03,-7.717252676719965621e-05,2.347229786979974087e-01
3.367157999999999902e+03,1.094760453037579850e-04,2.263215787755816777e-01
3.369086999999999989e+03,3.009563824516447994e-04,2.154592720896415514e-01
3.371014999999999873e+03,4.970699565918224039e-04,2.033220769981487486e-01
3.372943999999999960e+03,6.980202050401729252e-04,1.904654490940225209e-01
3.374871999999999844e+03,9.035987812469059577e-04,1.783631796380742429e-01
3.376800999999999931e+03,1.114018940995720186e-03,1.658621404927913545e-01
3.378728999999999814e+03,1.329062519270785003e-03,1.538360830696037240e-01
3.380657999999999902e+03,1.548952590320951117e-03,1.428410641725776919e-01
3.382585999999999785e+03,1.773461170661683184e-03,1.334183808855873288e-01
3.384514999999999873e+03,2.002821153014089361e-03,1.232408617177873644e-01
3.386443000000000211e+03,2.236794735423153213e-03,1.125604983669550307e-01
3.388371999999999844e+03,2.475624629074246741e-03,1.031570195628921383e-01
3.390300000000000182e+03,2.719063213551642377e-03,9.814019052705846846e-02
3.392228999999999814e+03,2.967363018504975969e-03,9.313309020059268306e-02
3.394157000000000153e+03,3.220266605048927033e-03,8.773397689156769985e-02
3.396085999999999785e+03,3.478036321300947975e-03,8.475223623100580639e-02
3.398014000000000124e+03,3.740404909913230824e-03,8.141449668566647091e-02
3.399943000000000211e+03,4.007644537468380008e-03,7.847885201682514023e-02
3.401871000000000095e+03,4.279478128147218285e-03,7.694359258644922761e-02
3.403800000000000182e+03,4.556187667001942998e-03,7.542146180217335072e-02
3.405728000000000065e+03,4.837486259747336703e-03,7.564336057703213712e-02
3.407657000000000153e+03,5.123665709905189658e-03,7.640610395545754940e-02
3.409585000000000036e+03,5.414429304718026970e-03,7.777424642633068430e-02
3.411514000000000124e+03,5.710078666174567275e-03,7.989431693822135472e-02
3.413442000000000007e+03,6.010307263055736371e-03,8.307518351735065920e-02
3.415371000000000095e+03,6.315426535814516740e-03,8.743853137068580139e-02
3.417298999999999978e+03,6.625120134762241264e-03,9.356858446572235977e-02
3.419228000000000065e+03,6.939709318821485340e-03,9.956895151187339366e-02
3.421155999999999949e+03,7.258867919838429827e-03,1.062725159505286676e-01
3.423085000000000036e+03,7.582927015197249432e-03,1.139325631443606213e-01
3.425012999999999920e+03,7.911550618279861169e-03,1.235738284094720640e-01
3.426942000000000007e+03,8.245079624940032659e-03,1.351074999988264302e-01
3.428869999999999891e+03,8.583168230091864359e-03,1.485376488059797495e-01
3.430798999999999978e+03,8.926167148053387734e-03,1.619985860648354148e-01
3.432726999999999862e+03,9.273720755270886684e-03,1.787054187492924662e-01
3.434655999999999949e+03,9.626189584533761945e-03,1.974480638456519443e-01
3.436583999999999833e+03,9.983208193819592680e-03,2.204218951773855295e-01
3.438512999999999920e+03,1.034514693438204347e-02,2.449776940664252223e-01
3.440440999999999804e+03,1.071163054573442963e-02,2.669043128329211534e-01
3.442369999999999891e+03,1.108303919759912048e-02,2.808521442630085296e-01
3.444297999999999774e+03,1.145898781101983843e-02,2.838331212099030054e-01
3.446226999999999862e+03,1.183986637418410481e-02,2.782588484702936960e-01
3.448155000000000200e+03,1.222527998967226637e-02,2.693942022230304545e-01
3.450083999999999833e+03,1.261562846413788463e-02,2.593586684254134411e-01
3.452012000000000171e+03,1.301050708169348979e-02,2.544893377062869000e-01
3.453940999999999804e+03,1.341032546745868359e-02,2.523120312718476477e-01
3.455869000000000142e+03,1.381466908708173236e-02,2.497878018882708773e-01
3.457797999999999774e+03,1.422395738414916622e-02,2.470031488429573763e-01
3.459726000000000113e+03,1.463776600583965859e-02,2.446414293750507341e-01
3.461655000000000200e+03,1.505652421420755616e-02,2.375910824164502166e-01
3.463583000000000084e+03,1.547979783796460396e-02,2.231652012307634436e-01
3.465512000000000171e+03,1.590802595763474159e-02,2.031442494505730778e-01
3.467440000000000055e+03,1.634076458345923299e-02,1.796743220248480100e-01
3.469369000000000142e+03,1.677846261442894615e-02,1.579964799571236256e-01
3.471297000000000025e+03,1.722066624232265752e-02,1.433983192919172645e-01
3.473226000000000113e+03,1.766783418459283439e-02,1.339441978511684006e-01
3.475153999999999996e+03,1.811950281455221301e-02,1.255711285879437256e-01
3.477083000000000084e+03,1.857614066812462994e-02,1.177565097323225451e-01
3.479010999999999967e+03,1.903727430015145217e-02,1.121128467652239280e-01
3.480940000000000055e+03,1.950338206502344462e-02,1.061739631885929569e-01
3.482867999999999938e+03,1.997398069911771046e-02,9.944894101193968439e-02
3.484797000000000025e+03,2.044955837529194298e-02,9.422015044695930541e-02
3.486724999999999909e+03,2.092962201145365242e-02,9.061535843183232686e-02
3.488653999999999996e+03,2.141466959892746047e-02,8.520822727820664966e-02
3.490581999999999880e+03,2.190419823715661352e-02,7.975470782852944751e-02
3.492510999999999967e+03,2.239871573593266163e-02,7.512627339922595127e-02
3.494438999999999851e+03,2.289770937622925828e-02,7.117660613876397591e-02
3.496367999999999938e+03,2.340169678630488193e-02,6.767609547792829972e-02
3.498295999999999822e+03,2.391015542866981036e-02,6.577848925997509255e-02
3.500224999999999909e+03,2.442361275004589771e-02,6.388892217265906837e-02
3.502152999999999793e+03,2.494153639447738158e-02,6.027576043298932262e-02
3.504081999999999880e+03,2.546446362715482081e-02,5.847885294328092343e-02
3.506010000000000218e+03,2.599185227365374828e-02,5.914535515168939384e-02
3.507938999999999851e+03,2.652424941763253941e-02,5.784465851059783503e-02
3.509867000000000189e+03,2.706110306619979866e-02,5.627657620368342606e-02
3.511795999999999822e+03,2.760297012147905349e-02,5.543856461497131960e-02
3.513724000000000160e+03,2.814928877211197999e-02,5.677062182576486649e-02
3.515652999999999793e+03,2.870062573869258671e-02,5.800825859731029155e-02
3.517581000000000131e+03,2.925640939139384500e-02,5.846849282503363554e-02
3.519510000000000218e+03,2.981721626927491542e-02,5.858937713731871000e-02
3.521438000000000102e+03,3.038246492404450549e-02,5.866763751588877085e-02
3.523367000000000189e+03,3.095274171322603962e-02,5.775434216334973669e-02
3.525295000000000073e+03,3.152745537006218512e-02,5.919210755289094905e-02
3.527224000000000160e+03,3.210720207054595932e-02,5.925773242998166879e-02
3.529152000000000044e+03,3.269138072944866025e-02,5.912522074816983775e-02
3.531081000000000131e+03,3.328059734123200997e-02,5.989286761189394070e-02
3.533009000000000015e+03,3.387424100220304268e-02,5.974685541550384116e-02
3.534938000000000102e+03,3.447292752528863247e-02,5.739830858323591301e-02
3.536865999999999985e+03,3.507603618832622061e-02,5.554388061803150478e-02
3.538795000000000073e+03,3.568419262271138592e-02,5.363504745924085881e-02
3.540722999999999956e+03,3.629676628781641767e-02,5.276482184156883193e-02
3.542652000000000044e+03,3.691439263350382305e-02,5.243402730813651047e-02
3.544579999999999927e+03,3.753643130067629841e-02,4.921404985658472953e-02
3.546509000000000015e+03,3.816352755766327931e-02,4.688272562418305256e-02
3.548436999999999898e+03,3.879503122690497463e-02,4.604510039288767231e-02
3.550365999999999985e+03,3.943159739519241924e-02,4.468027942854924106e-02
3.552293999999999869e+03,4.007256606649978181e-02,4.285721601582492823e-02
3.554222999999999956e+03,4.071860214608857831e-02,4.157481065579915480e-02
3.556150999999999840e+03,4.136903581946516084e-02,3.969106227453167435e-02
3.558079999999999927e+03,4.202454181035442105e-02,3.729780251199033003e-02
3.560007999999999811e+03,4.268444048579667083e-02,3.476759900014148030e-02
3.561936999999999898e+03,4.334941638798817110e-02,3.272620290797023657e-02
3.563864999999999782e+03,4.401878006549786448e-02,3.080862416868601628e-02
3.565793999999999869e+03,4.469322587898894028e-02,2.669033406389331731e-02
3.567722000000000207e+03,4.537205455856696545e-02,2.433552599647148540e-02
3.569650999999999840e+03,4.605597028335939314e-02,2.720720721710634393e-02
3.571579000000000178e+03,4.674426396500486192e-02,2.816788603189124274e-02
3.573507999999999811e+03,4.743764960109686513e-02,2.711720232663683561e-02
3.575436000000000149e+03,4.813540828480977751e-02,2.656068658077659350e-02
3.577364999999999782e+03,4.883826383220402079e-02,2.589508191809120063e-02
3.579293000000000120e+03,4.954548751798437678e-02,2.535176212502809889e-02
3.581222000000000207e+03,5.025781297667908376e-02,2.534596177963832631e-02
3.583150000000000091e+03,5.097450166452599518e-02,2.665261697954202091e-02
3.585079000000000178e+03,5.169629703452294223e-02,2.565237124634878185e-02
3.587007000000000062e+03,5.242245072443729725e-02,2.054985945126297509e-02
3.588936000000000149e+03,5.315371600573293165e-02,2.116366153198390165e-02
3.590864000000000033e+03,5.388933469771473028e-02,2.779502613918882759e-02
3.592793000000000120e+03,5.463006989031349292e-02,3.045250290412404581e-02
3.594721000000000004e+03,5.537515358436273516e-02,3.094756324682901294e-02
3.596650000000000091e+03,5.612535868826018515e-02,3.260780080761138677e-02
3.598577999999999975e+03,5.687990738437864735e-02,3.389646313775473985e-02
3.600507000000000062e+03,5.763958239957744922e-02,3.514026487179533476e-02
3.602434999999999945e+03,5.840359609776157868e-02,3.707042141015470804e-02
3.604364000000000033e+03,5.917274102426084426e-02,3.776771964501390855e-02
3.606291999999999916e+03,5.994621972451330549e-02,3.725282416944653008e-02
3.608221000000000004e+03,6.072483456231392296e-02,3.623766621374624464e-02
3.610148999999999887e+03,6.150777826463293962e-02,3.797971164658608956e-02
3.612077999999999975e+03,6.229586301373579715e-02,3.974082910770215804e-02
3.614005999999999858e+03,6.308827171812225743e-02,4.058031957758778674e-02
3.615934999999999945e+03,6.388582637852380230e-02,4.276500866214183461e-02
3.617862999999999829e+03,6.468770008497770618e-02,4.235706306148090405e-02
3.619791999999999916e+03,6.549472465668237930e-02,4.074200471564060066e-02
3.621719999999999800e+03,6.630606336520283861e-02,4.614380315246080499e-02
3.623648999999999887e+03,6.712255784820708726e-02,5.073799967336745098e-02
3.625577000000000226e+03,6.794336155879587835e-02,5.447856679533646940e-02
3.627505999999999858e+03,6.876932595310147889e-02,5.397202873740569729e-02
3.629434000000000196e+03,6.959959466575860176e-02,5.295395348101017419e-02
3.631362999999999829e+03,7.043502897136288965e-02,6.236158119812884593e-02
3.633291000000000167e+03,7.127476268608745613e-02,7.062441158596799440e-02
3.635219999999999800e+03,7.211966690299398408e-02,7.904318154799039320e-02
3.637148000000000138e+03,7.296886561978599417e-02,8.656363577712200552e-02
3.639077000000000226e+03,7.382323974799298583e-02,9.287850483510773358e-02
3.641005000000000109e+03,7.468190346685155134e-02,9.940917494626111406e-02
3.642934000000000196e+03,7.554574750636078306e-02,1.075473176206025450e-01
3.644862000000000080e+03,7.641387622728679219e-02,1.151096849572916803e-01
3.646791000000000167e+03,7.728719017809559944e-02,1.150496819892850020e-01
3.648719000000000051e+03,7.816478390108994034e-02,1.067718895949059110e-01
3.650648000000000138e+03,7.904756776320009948e-02,9.316358266828972390e-02
3.652576000000000022e+03,7.993462648826010764e-02,8.408971075641602511e-02
3.654505000000000109e+03,8.082688026167073048e-02,7.469835721271955720e-02
3.656432999999999993e+03,8.172340398879995860e-02,5.464835984059135399e-02
3.658362000000000080e+03,8.262512767351193332e-02,4.017738055272523923e-02
3.660289999999999964e+03,8.353111640270682869e-02,3.036004892913668485e-02
3.662219000000000051e+03,8.444230999872104348e-02,2.162958420876659460e-02
3.664146999999999935e+03,8.535776372998338246e-02,1.632908049923420535e-02
3.666076000000000022e+03,8.627842723729717278e-02,1.091223520760253862e-02
3.668003999999999905e+03,8.720334597062695536e-02,5.924486648731353000e-03
3.669932999999999993e+03,8.813347938924298575e-02,-1.987083412338552790e-03
3.671860999999999876e+03,8.906786312464021194e-02,-1.391364840488407140e-04
3.673789999999999964e+03,9.000746645455492967e-02,2.704708376264353120e-03
3.675717999999999847e+03,9.095131519202137582e-02,-3.584642316873942747e-03
3.677646999999999935e+03,9.190038843323744544e-02,-1.712271465459380693e-03
3.679574999999999818e+03,9.285370217276955884e-02,-5.630831872349695288e-04
3.681503999999999905e+03,9.381224532528609217e-02,-2.013958865982434787e-03
3.683431999999999789e+03,9.477502406688742553e-02,-4.133998425861484804e-03
3.685360999999999876e+03,9.574303713070531074e-02,-6.129204635516583011e-03
3.687289000000000215e+03,9.671528087437319954e-02,-5.906936676198348835e-03
3.689217999999999847e+03,9.769276384949243663e-02,-9.438278222125173755e-03
3.691146000000000186e+03,9.867447259522599268e-02,-1.065621966171859114e-02
3.693074999999999818e+03,9.966142548164569348e-02,-6.004319875387409411e-03
3.695003000000000156e+03,1.006525992294484695e-01,-2.809115030031783533e-03
3.696931999999999789e+03,1.016490220271695222e-01,-2.203128937208198579e-03
3.698860000000000127e+03,1.026496607770397418e-01,-1.709248237276028703e-04
