wavenumber (/cm),baseline value (/cm),baseline-subtracted absorbance (/cm),
3.199378999999999905e+03,6.237660644433873358e-03,6.217248937900876626e-15
3.201307999999999993e+03,6.580708257843070896e-03,1.855685856516853249e-03
3.203235999999999876e+03,6.928310535265325143e-03,2.234475830910742644e-03
3.205164999999999964e+03,7.280828059976762745e-03,2.385776521881988188e-03
3.207092999999999847e+03,7.637895339466460598e-03,3.390229078488182779e-03
3.209021000000000186e+03,7.999693893000703326e-03,4.634564503969373916e-03
3.210949999999999818e+03,8.366415057036391545e-03,5.276411043416695534e-03
3.212878000000000156e+03,8.737678612637189701e-03,5.137965517244102998e-03
3.214806999999999789e+03,9.113869687972453448e-03,3.832985716509806906e-03
3.216735999999999876e+03,9.494796946587058528e-03,3.829534089608177538e-03
3.218664000000000215e+03,9.880259232279087200e-03,5.080316914737537104e-03
3.220592999999999847e+03,1.027065640219237963e-02,5.617777198105411429e-03
3.222521000000000186e+03,1.066558368995185191e-02,5.015797076174388636e-03
3.224449000000000069e+03,1.106524225175675724e-02,4.659287455823557522e-03
3.226378000000000156e+03,1.146984306099430029e-02,4.977974658009642894e-03
3.228306000000000040e+03,1.187896662486487287e-02,5.975071991885405609e-03
3.230235000000000127e+03,1.229303734540554416e-02,5.524681658753749502e-03
3.232164000000000215e+03,1.271184424922200407e-02,6.178389810503226443e-03
3.234092000000000098e+03,1.313516654318291899e-02,6.571793163776540325e-03
3.236021000000000186e+03,1.356344335830161896e-02,7.200510202261867221e-03
3.237949000000000069e+03,1.399623065433086566e-02,8.470398761450947944e-03
3.239876999999999953e+03,1.443374922440288088e-02,9.109430759454806292e-03
3.241806000000000040e+03,1.487622967884671965e-02,8.255017604942738174e-03
3.243733999999999924e+03,1.532321325098617848e-02,9.009375064652713760e-03
3.245663000000000011e+03,1.577516361672870460e-02,1.130902338271244645e-02
3.247592000000000098e+03,1.623185016574968387e-02,1.385475814119740967e-02
3.249519999999999982e+03,1.669303246798126139e-02,1.327809809636937288e-02
3.251447999999999865e+03,1.715894604425560743e-02,1.170800621252698903e-02
3.253376999999999953e+03,1.762983623260172550e-02,1.143423528909681686e-02
3.255304999999999836e+03,1.810521481094351515e-02,1.203075091824246101e-02
3.257233999999999924e+03,1.858557491058920874e-02,1.300193362607182657e-02
3.259161999999999807e+03,1.907041849099844200e-02,1.403413232541650402e-02
3.261090999999999894e+03,1.956024850194637565e-02,1.629900523866312234e-02
3.263019999999999982e+03,2.005481469616920975e-02,1.909027749977010302e-02
3.264947999999999865e+03,2.055385700666967352e-02,1.883988484469911739e-02
3.266876000000000204e+03,2.105763059121468217e-02,1.948716359764723904e-02
3.268804999999999836e+03,2.156640042476354324e-02,2.161699809761796764e-02
3.270733000000000175e+03,2.207963901137599549e-02,2.400560342979840556e-02
3.272661999999999807e+03,2.259787875622532027e-02,2.530955279527380419e-02
3.274590999999999894e+03,2.312085468435132185e-02,2.700052111499040564e-02
3.276518999999999778e+03,2.364829200105411644e-02,2.811522696585444514e-02
3.278447999999999865e+03,2.418073784048235808e-02,2.908430220421842627e-02
3.280376000000000204e+03,2.471764015925348446e-02,3.061078847425968696e-02
3.282304000000000087e+03,2.525927375206737935e-02,3.341366348019159105e-02
3.284233000000000175e+03,2.580592323081809525e-02,3.491488138829135224e-02
3.286161000000000058e+03,2.635702182570121010e-02,3.691826221229455030e-02
3.288090000000000146e+03,2.691314121575327789e-02,3.955206024944790677e-02
3.290018999999999778e+03,2.747399678908291065e-02,4.124333108078714893e-02
3.291947000000000116e+03,2.803929411405636785e-02,4.314559444371335317e-02
3.293875000000000000e+03,2.860932271307259356e-02,4.597098398587795565e-02
3.295804000000000087e+03,2.918438192572647694e-02,4.807860932031560175e-02
3.297731999999999971e+03,2.976387552681192261e-02,5.143342999252720205e-02
3.299661000000000058e+03,3.034840465076626970e-02,5.484405825356075681e-02
3.301588999999999942e+03,3.093736325391738262e-02,5.718736512504807301e-02
3.303518000000000029e+03,3.153136228917485795e-02,5.891006069462068062e-02
3.305447000000000116e+03,3.213009750770723372e-02,6.006801511413395467e-02
3.307375000000000000e+03,3.273325484094957716e-02,6.173498877983618627e-02
3.309302999999999884e+03,3.334114344823646547e-02,6.650426538022302658e-02
3.311231999999999971e+03,3.395408230609398004e-02,6.938576993206302390e-02
3.313159999999999854e+03,3.457143591544742378e-02,7.201141626062490531e-02
3.315088999999999942e+03,3.519384468460717841e-02,7.608075642050216025e-02
3.317016999999999825e+03,3.582066329602806576e-02,7.981446428825189621e-02
3.318945999999999913e+03,3.645254197648650774e-02,8.334164688549861033e-02
3.320875000000000000e+03,3.708915684022429105e-02,8.890388966129658677e-02
3.322802999999999884e+03,3.773017418173640891e-02,9.474545753118324143e-02
3.324731000000000222e+03,3.837592279729218347e-02,9.915558524269019181e-02
3.326659999999999854e+03,3.902674130035332922e-02,1.044518704833430345e-01
3.328588000000000193e+03,3.968195491797565921e-02,1.111835073034185273e-01
3.330516999999999825e+03,4.034224333233815685e-02,1.178666099612606377e-01
3.332445000000000164e+03,4.100692195202970680e-02,1.256119394125939648e-01
3.334373999999999796e+03,4.167668027769266814e-02,1.346348612880859941e-01
3.336302000000000135e+03,4.235082389945077352e-02,1.466039783604360380e-01
3.338231000000000222e+03,4.303005213641419857e-02,1.561153504835646189e-01
3.340159000000000106e+03,4.371366076023974756e-02,1.642201568345945661e-01
3.342088000000000193e+03,4.440235890850541267e-02,1.754896135258396939e-01
3.344016000000000076e+03,4.509543253439751709e-02,1.895485110925967387e-01
3.345945000000000164e+03,4.579360059396275773e-02,2.021153830777325799e-01
3.347873000000000047e+03,4.649613922192408211e-02,2.151851173745865653e-01
3.349802000000000135e+03,4.720377719278978645e-02,2.297165059139337773e-01
3.351730000000000018e+03,4.791578082281766626e-02,2.429562003034005935e-01
3.353659000000000106e+03,4.863288870498561067e-02,2.539669126236290264e-01
3.355586999999999989e+03,4.935435733708093409e-02,2.620189586125061254e-01
3.357516000000000076e+03,5.008093513054845403e-02,2.642209212052060163e-01
3.359443999999999960e+03,5.081186876471210923e-02,2.651833507050832539e-01
3.361373000000000047e+03,5.154791646948009287e-02,2.645814061852660437e-01
3.363302000000000135e+03,5.228870035752564149e-02,2.620047745291692598e-01
3.365230000000000018e+03,5.303383272178052721e-02,2.558557804898662358e-01
3.367157999999999902e+03,5.378369636007818144e-02,2.464854412819406093e-01
3.369086999999999989e+03,5.453868388744798068e-02,2.354765268904744913e-01
3.371014999999999873e+03,5.529801252781396670e-02,2.238681885027936636e-01
3.372943999999999960e+03,5.606246996648511782e-02,2.105272115384503318e-01
3.374871999999999844e+03,5.683126360891677109e-02,1.972191492550551262e-01
3.376800999999999931e+03,5.760519095889016228e-02,1.849769161994879729e-01
3.378728999999999814e+03,5.838344960338925915e-02,1.746242489127837194e-01
3.380657999999999902e+03,5.916684686466222587e-02,1.648444525703658403e-01
3.382585999999999785e+03,5.995457051123054271e-02,1.533502038104928022e-01
3.384514999999999873e+03,6.074743768380397313e-02,1.414509853620764535e-01
3.386443000000000211e+03,6.154462633243884540e-02,1.328534614554793825e-01
3.388371999999999844e+03,6.234696341631451588e-02,1.262424697493895742e-01
3.390300000000000182e+03,6.315361706701683175e-02,1.202141733346716590e-01
3.392228999999999814e+03,6.396542406219118959e-02,1.149387790792998354e-01
3.394157000000000153e+03,6.478154271496094907e-02,1.105558882156900680e-01
3.396085999999999785e+03,6.560281962143754697e-02,1.063860671979575123e-01
3.398014000000000124e+03,6.642840327627475006e-02,1.046627372216450969e-01
3.399943000000000211e+03,6.725915009405181166e-02,1.030366840153414953e-01
3.401871000000000095e+03,6.809419875095734653e-02,1.011502291375380169e-01
3.403800000000000182e+03,6.893441548003487185e-02,1.000452207029908225e-01
3.405728000000000065e+03,6.977892913900607397e-02,9.984049098888847507e-02
3.407657000000000153e+03,7.062861577938672752e-02,1.017160169889747001e-01
3.409585000000000036e+03,7.148259444042537325e-02,1.033625039639948229e-01
3.411514000000000124e+03,7.234175099210471416e-02,1.047579572092981470e-01
3.413442000000000007e+03,7.320519465521080349e-02,1.087417849188873076e-01
3.415371000000000095e+03,7.407382111819238446e-02,1.128461515644919588e-01
3.417298999999999978e+03,7.494672978336591740e-02,1.164008209709642694e-01
3.419228000000000065e+03,7.582482615764707390e-02,1.221639364921324189e-01
3.421155999999999949e+03,7.670719982488982680e-02,1.310496760675792238e-01
3.423085000000000036e+03,7.759476611047233519e-02,1.408059292393752937e-01
3.425012999999999920e+03,7.848660477978075534e-02,1.515431959279858187e-01
3.426942000000000007e+03,7.938364097666461561e-02,1.612157878431029756e-01
3.428869999999999891e+03,8.028494464804047936e-02,1.744080459771532032e-01
3.430798999999999978e+03,8.119145075622391516e-02,1.892744957266714323e-01
3.432726999999999862e+03,8.210221942966899888e-02,2.040392097626073653e-01
3.434655999999999949e+03,8.301819544915378657e-02,2.223567967902450038e-01
3.436583999999999833e+03,8.393842912466453754e-02,2.455832074308700319e-01
3.438512999999999920e+03,8.486387505545156529e-02,2.700892509146233245e-01
3.440440999999999804e+03,8.579357373302975986e-02,2.943281124903512902e-01
3.442369999999999891e+03,8.672848957511547496e-02,3.091903655810275264e-01
3.444297999999999774e+03,8.766765325476288950e-02,3.114526050180375094e-01
3.446226999999999862e+03,8.861203900814995649e-02,3.042274096787560556e-01
3.448155000000000200e+03,8.956066768986392646e-02,2.942119156589902973e-01
3.450083999999999833e+03,9.051452335455234532e-02,2.881450656440195379e-01
3.452012000000000171e+03,9.147261703833375890e-02,2.839092045299282940e-01
3.453940999999999804e+03,9.243594261432175330e-02,2.798065606451303200e-01
3.455869000000000142e+03,9.340350130017061048e-02,2.768755699111037361e-01
3.457797999999999774e+03,9.437629678746084494e-02,2.738161040320583606e-01
3.459726000000000113e+03,9.535332047537625755e-02,2.696429544361526043e-01
3.461655000000000200e+03,9.633558587396695572e-02,2.642771911794877804e-01
3.463583000000000084e+03,9.732207456395158829e-02,2.501265502575543698e-01
3.465512000000000171e+03,9.831380987384275016e-02,2.265452576123430095e-01
3.467440000000000055e+03,9.930976356589304999e-02,2.007513899698364357e-01
3.469369000000000142e+03,1.003109687870864519e-01,1.808497066956226140e-01
3.471297000000000025e+03,1.013163874812041954e-01,1.657212359123512169e-01
3.473226000000000113e+03,1.023270626136971728e-01,1.550045323450163215e-01
3.475153999999999996e+03,1.033419463098832480e-01,1.482269367844233354e-01
3.477083000000000084e+03,1.043620913536775774e-01,1.411690441774577920e-01
3.479010999999999967e+03,1.053864400519302080e-01,1.351549394724999020e-01
3.480940000000000055e+03,1.064160550070258893e-01,1.283691315578214809e-01
3.482867999999999938e+03,1.074498687073459635e-01,1.205069202663919814e-01
3.484797000000000025e+03,1.084889535737412203e-01,1.157716163647947161e-01
3.486724999999999909e+03,1.095322322761287381e-01,1.109185034288440175e-01
3.488653999999999996e+03,1.105807870538271231e-01,1.056475608694358304e-01
3.490581999999999880e+03,1.116335307582811964e-01,1.020086744940932322e-01
3.492510999999999967e+03,1.126915554472800451e-01,9.644919081211011935e-02
3.494438999999999851e+03,1.137537641538024502e-01,9.285578448964426634e-02
3.496367999999999938e+03,1.148212587541008745e-01,9.035940803673503385e-02
3.498295999999999822e+03,1.158929324626898349e-01,8.791286625836292057e-02
3.500224999999999909e+03,1.169698969742904993e-01,8.536790646520764358e-02
3.502152999999999793e+03,1.180510356849477915e-01,8.346817956308072439e-02
3.504081999999999880e+03,1.191374701078471432e-01,8.289301353280575935e-02
3.506010000000000218e+03,1.202280738205727673e-01,8.060851896517229331e-02
3.507938999999999851e+03,1.213239781547734708e-01,7.995093337437519931e-02
3.509867000000000189e+03,1.224240468695665385e-01,8.038342814129795233e-02
3.511795999999999822e+03,1.235294211150685939e-01,8.010067759977568258e-02
3.513724000000000160e+03,1.246389548319282170e-01,8.084996302987079719e-02
3.515652999999999793e+03,1.257537989887307361e-01,8.026594398016451137e-02
3.517581000000000131e+03,1.268727977076578028e-01,8.183149235256415022e-02
3.519510000000000218e+03,1.279971117757625620e-01,8.386791585197672649e-02
3.521438000000000102e+03,1.291255754967561842e-01,8.349316169825193867e-02
3.523367000000000189e+03,1.302593594761605189e-01,8.240469962857632780e-02
3.525295000000000073e+03,1.313972881992233610e-01,8.327148935090988857e-02
3.527224000000000160e+03,1.325405420899281594e-01,8.352762702908833603e-02
3.529152000000000044e+03,1.336879358150575570e-01,8.322210329837109732e-02
3.531081000000000131e+03,1.348406596170645955e-01,8.208024433773730699e-02
3.533009000000000015e+03,1.359975183442605484e-01,7.902824685099596458e-02
3.534938000000000102e+03,1.371597120575680506e-01,7.537831488723834017e-02
3.536865999999999985e+03,1.383260357868332235e-01,7.251179869506874098e-02
3.538795000000000073e+03,1.394976994114403013e-01,7.237881390575084950e-02
3.540722999999999956e+03,1.406734881427711414e-01,7.376060883369839338e-02
3.542652000000000044e+03,1.418546216786813474e-01,7.281974350415820751e-02
3.544579999999999927e+03,1.430398754120796312e-01,6.977784359207983567e-02
3.546509000000000015e+03,1.442304788592894127e-01,6.782204488814946863e-02
3.548436999999999898e+03,1.454251975947569164e-01,6.692191856591844790e-02
3.550365999999999985e+03,1.466252709532671616e-01,6.527297204667048547e-02
3.552293999999999869e+03,1.478294546908003326e-01,6.299937749396389286e-02
3.554222999999999956e+03,1.490389979606128179e-01,5.952404916175613181e-02
3.556150999999999840e+03,1.502526467002134325e-01,5.677287015581178320e-02
3.558079999999999927e+03,1.514716598813254933e-01,5.362984877950505158e-02
3.560007999999999811e+03,1.526947736229935515e-01,5.042622966750098801e-02
3.561936999999999898e+03,1.539232567154078524e-01,4.841547799620804504e-02
3.563864999999999782e+03,1.551558354591433542e-01,4.845315442103281800e-02
3.565793999999999869e+03,1.563937884628581187e-01,4.852674298309689327e-02
3.567722000000000207e+03,1.576358322086610642e-01,4.584215872695684979e-02
3.569650999999999840e+03,1.588832551236754043e-01,4.175808094138921955e-02
3.571579000000000178e+03,1.601347638715466815e-01,4.048360081461455096e-02
3.573507999999999811e+03,1.613916566978632616e-01,3.827122279552441775e-02
3.575436000000000149e+03,1.626526304478019824e-01,3.741659411294762094e-02
3.577364999999999782e+03,1.639189931854172499e-01,3.763312701077059508e-02
3.579293000000000120e+03,1.651894319374234144e-01,3.652038367069720959e-02
3.581222000000000207e+03,1.664652645863418101e-01,3.661879824348335255e-02
3.583150000000000091e+03,1.677451683404145300e-01,3.663739824554168578e-02
3.585079000000000178e+03,1.690304709006325012e-01,3.427895978167938562e-02
3.587007000000000062e+03,1.703198396567735529e-01,3.277508801442508002e-02
3.588936000000000149e+03,1.716146121282919879e-01,3.364955872909902723e-02
3.590864000000000033e+03,1.729134458864995949e-01,3.691737301211550637e-02
3.592793000000000120e+03,1.742176882693211581e-01,3.772587664034521282e-02
3.594721000000000004e+03,1.755259870295962088e-01,3.759874134936935786e-02
3.596650000000000091e+03,1.768396993237164594e-01,3.887303427037280823e-02
3.598577999999999975e+03,1.781574630860598418e-01,4.176865599260148887e-02
3.600507000000000062e+03,1.794806452914814443e-01,4.305613995716806031e-02
3.602434999999999945e+03,1.808078740558913822e-01,4.202536615023000355e-02
3.604364000000000033e+03,1.821405261726152247e-01,4.123564567813264858e-02
3.606291999999999916e+03,1.834772199390917180e-01,4.167954420072306210e-02
3.608221000000000004e+03,1.848193419671151361e-01,4.253274097818804389e-02
3.610148999999999887e+03,1.861655007356608493e-01,4.323165578013954402e-02
3.612077999999999975e+03,1.875170926749847311e-01,4.323661689228386340e-02
3.614005999999999858e+03,1.888727164455969998e-01,4.436252289133701954e-02
3.615934999999999945e+03,1.902337782962231216e-01,4.764726721194090242e-02
3.617862999999999829e+03,1.915988670689028339e-01,5.089849432676341046e-02
3.619791999999999916e+03,1.929693988308285313e-01,4.876152561196012147e-02
3.621719999999999800e+03,1.943439526055765754e-01,4.782901566908637214e-02
3.623648999999999887e+03,1.957239542788027364e-01,5.190192266910775842e-02
3.625577000000000226e+03,1.971079730556182241e-01,5.565759470994935398e-02
3.627505999999999858e+03,1.984974446401457371e-01,5.617505799845845527e-02
3.629434000000000196e+03,1.998909284190286684e-01,6.163045979727466150e-02
3.631362999999999829e+03,2.012898699148557569e-01,6.786422457822149923e-02
3.633291000000000167e+03,2.026928186958052436e-01,7.336200218952382279e-02
3.635219999999999800e+03,2.041012301029354603e-01,8.010004884410604209e-02
3.637148000000000138e+03,2.055136438859523906e-01,8.697409436449743403e-02
3.639077000000000226e+03,2.069315252043821829e-01,9.480902238362276524e-02
3.641005000000000109e+03,2.083534039894665568e-01,1.028103757336350510e-01
3.642934000000000196e+03,2.097807552191985891e-01,1.112228456996563475e-01
3.644862000000000080e+03,2.112120990063495185e-01,1.164746210532515702e-01
3.646791000000000167e+03,2.126489201473811264e-01,1.183978297129277824e-01
3.648719000000000051e+03,2.140897289366021639e-01,1.157038390773045267e-01
3.650648000000000138e+03,2.155360199889342354e-01,1.019464410528485576e-01
3.652576000000000022e+03,2.169862937802200520e-01,8.751423394064650196e-02
3.654505000000000109e+03,2.184420547438552518e-01,7.405437537969328243e-02
3.656432999999999993e+03,2.199017935372085120e-01,5.727955618651381364e-02
3.658362000000000080e+03,2.213670244121423991e-01,4.393470775399632711e-02
3.660289999999999964e+03,2.228362282075657674e-01,3.653267972066398528e-02
3.662219000000000051e+03,2.243109289938001183e-01,2.744855446059835113e-02
3.664146999999999935e+03,2.257895977912891539e-01,1.785509085339920254e-02
3.666076000000000022e+03,2.272737684888257448e-01,1.199300993049479125e-02
3.668003999999999905e+03,2.287619022883822240e-01,1.028913142366816302e-02
3.669932999999999993e+03,2.302555428972183904e-01,1.157192342177315592e-02
3.671860999999999876e+03,2.317531416988432014e-01,2.016093292709564277e-02
3.673789999999999964e+03,2.332562522189807197e-01,2.775697184509051674e-02
3.675717999999999847e+03,2.347633160226711979e-01,3.651097465839880929e-02
3.677646999999999935e+03,2.362758964541118445e-01,2.103862518244359325e-02
3.679574999999999818e+03,2.377924252598697663e-01,8.660669667801212945e-03
3.681503999999999905e+03,2.393144756026091002e-01,4.119745543476271976e-03
3.683431999999999789e+03,2.408404694104362420e-01,9.149785314521707846e-04
3.685360999999999876e+03,2.423719896644760396e-01,-2.121167040772364842e-03
3.687289000000000215e+03,2.439074484743697369e-01,-2.801407622566531863e-03
3.689217999999999847e+03,2.454484386397117746e-01,-1.770224198785697034e-03
3.691146000000000186e+03,2.469933624516729154e-01,-1.567150245799786568e-03
3.693074999999999818e+03,2.485438225283136404e-01,5.270783222479646923e-04
3.695003000000000156e+03,2.500982113423422248e-01,4.303159551077850864e-05
3.696931999999999789e+03,2.516581413302851900e-01,1.683937165886106868e-04
3.698860000000000127e+03,2.532219951463812180e-01,4.043784799921956719e-04
