wavenumber (/cm),baseline value (/cm),baseline-subtracted absorbance (/cm),
3.199378999999999905e+03,4.035202086048350623e-03,8.881784197001252323e-16
3.201307999999999993e+03,3.967809296358204563e-03,1.347891951546387190e-03
3.203235999999999876e+03,3.905183944347356828e-03,1.148829838479858978e-03
3.205164999999999964e+03,3.847261065959450832e-03,1.795316695262449969e-03
3.207092999999999847e+03,3.794100716016046704e-03,2.957932561441278807e-03
3.209021000000000186e+03,3.745671640117187451e-03,2.601568690174360654e-03
3.210949999999999818e+03,3.701952401053532071e-03,2.991721157027171785e-03
3.212878000000000156e+03,3.662988327220340068e-03,3.444170051124295640e-03
3.214806999999999789e+03,3.628738999457148395e-03,2.430117398382058980e-03
3.216735999999999876e+03,3.599225854972409877e-03,4.644084506981727145e-03
3.218664000000000215e+03,3.574460511230448390e-03,6.999203113280394462e-03
3.220592999999999847e+03,3.554417278045285400e-03,7.201775681537458951e-03
3.222521000000000186e+03,3.539116936372543876e-03,7.051930434335496045e-03
3.224449000000000069e+03,3.528547868742570870e-03,8.035368440935997114e-03
3.226378000000000156e+03,3.522708274882546675e-03,8.771946223161908307e-03
3.228306000000000040e+03,3.521604209320017276e-03,1.065018445399434910e-02
3.230235000000000127e+03,3.525234526759568610e-03,1.174204057102379295e-02
3.232164000000000215e+03,3.533601027475796741e-03,1.137823854538044799e-02
3.234092000000000098e+03,3.546695692006274214e-03,1.088305534791444984e-02
3.236021000000000186e+03,3.564532104023854231e-03,1.156832938476926032e-02
3.237949000000000069e+03,3.587091770619998954e-03,1.277784272990745151e-02
3.239876999999999953e+03,3.614382711261576731e-03,1.389570607001378022e-02
3.241806000000000040e+03,3.646422762603407364e-03,1.341758667428738505e-02
3.243733999999999924e+03,3.683178705310652390e-03,1.419600425861800019e-02
3.245663000000000011e+03,3.724688667953834909e-03,1.717460977371709774e-02
3.247592000000000098e+03,3.770934813875470581e-03,1.974523827856877745e-02
3.249519999999999982e+03,3.821889486673946124e-03,1.997242354492723138e-02
3.251447999999999865e+03,3.877575433515190184e-03,2.024454538352049582e-02
3.253376999999999953e+03,3.938025218761964652e-03,2.045913129703835764e-02
3.255304999999999836e+03,4.003176167671540497e-03,2.235306645975798645e-02
3.257233999999999924e+03,4.073095864217002315e-03,2.421460513534823278e-02
3.259161999999999807e+03,4.147711815194021767e-03,2.578058023174234492e-02
3.261090999999999894e+03,4.227101423041723649e-03,2.629751520327028302e-02
3.263019999999999982e+03,4.311227214165214150e-03,2.768666190236812596e-02
3.264947999999999865e+03,4.400041895233464118e-03,2.976274447094295894e-02
3.266876000000000204e+03,4.493587850345370782e-03,3.155223073784574339e-02
3.268804999999999836e+03,4.591917280794888256e-03,3.241807837326859953e-02
3.270733000000000175e+03,4.694928237974238527e-03,3.428532879313017645e-02
3.272661999999999807e+03,4.802727579722443352e-03,3.668389314418663005e-02
3.274590999999999894e+03,4.915263104749989509e-03,3.942353369167372890e-02
3.276518999999999778e+03,5.032472792020570296e-03,4.189060413105627489e-02
3.278447999999999865e+03,5.154478228347691982e-03,4.343868002582729204e-02
3.280376000000000204e+03,5.281152917685716375e-03,4.534155770502490412e-02
3.282304000000000087e+03,5.412558881068285643e-03,4.733872937869421094e-02
3.284233000000000175e+03,5.548767956719657946e-03,4.966387251015813575e-02
3.286161000000000058e+03,5.689638922168782642e-03,5.343403401506341410e-02
3.288090000000000146e+03,5.835317909121506830e-03,5.597848975214425593e-02
3.290018999999999778e+03,5.985733079351795993e-03,5.763039655372681480e-02
3.291947000000000116e+03,6.140802774892151206e-03,5.919755942787618963e-02
3.293875000000000000e+03,6.300603744476163115e-03,6.248222359767297007e-02
3.295804000000000087e+03,6.465222554031591073e-03,6.523714287714765803e-02
3.297731999999999971e+03,6.634488525682158411e-03,6.832422507709878801e-02
3.299661000000000058e+03,6.808577246537161898e-03,7.133260360650828247e-02
3.301588999999999942e+03,6.987308220256061020e-03,7.363385028225799545e-02
3.303518000000000029e+03,7.170866852413304571e-03,7.591319597741197356e-02
3.305447000000000116e+03,7.359161667846336741e-03,7.931060923921240402e-02
3.307375000000000000e+03,7.552091371655578200e-03,8.210302752075193666e-02
3.309302999999999884e+03,7.749752349510252714e-03,8.420095231305868566e-02
3.311231999999999971e+03,7.952250804268423678e-03,8.834532167974407102e-02
3.313159999999999854e+03,8.159376784188765441e-03,9.351970684404742329e-02
3.315088999999999942e+03,8.371345150247400113e-03,9.831146356645970030e-02
3.317016999999999825e+03,8.587936132236961839e-03,1.036384250771753557e-01
3.318945999999999913e+03,8.809374409596060218e-03,1.072013662621618124e-01
3.320875000000000000e+03,9.035548870232723573e-03,1.110451613799692261e-01
3.322802999999999884e+03,9.266338582313515815e-03,1.174860051191828347e-01
3.324731000000000222e+03,9.501859568436188397e-03,1.257325105811877286e-01
3.326659999999999854e+03,9.742237668397102368e-03,1.327243917473848178e-01
3.328588000000000193e+03,9.987223656588106735e-03,1.402766367767638300e-01
3.330516999999999825e+03,1.023707166785037259e-02,1.478839316226441269e-01
3.332445000000000164e+03,1.049152265810882056e-02,1.563275622118234232e-01
3.334373999999999796e+03,1.075084058067155013e-02,1.673884777281378078e-01
3.336302000000000135e+03,1.101475657299655353e-02,1.792574853094146548e-01
3.338231000000000222e+03,1.128354440686241134e-02,1.925759576729788591e-01
3.340159000000000106e+03,1.155692540125485834e-02,2.068552556380445218e-01
3.342088000000000193e+03,1.183518314641940350e-02,2.203685171081279925e-01
3.344016000000000076e+03,1.211802914287929411e-02,2.347709011358816156e-01
3.345945000000000164e+03,1.240575679934607933e-02,2.496799823202913160e-01
3.347873000000000047e+03,1.269806779787341355e-02,2.656383697758517570e-01
3.349802000000000135e+03,1.299526536563977430e-02,2.807444130350558176e-01
3.351730000000000018e+03,1.329704136623544031e-02,2.927695756325849885e-01
3.353659000000000106e+03,1.360370884530226476e-02,3.033836258538964437e-01
3.355586999999999989e+03,1.391494984796448620e-02,3.127700318370174593e-01
3.357516000000000076e+03,1.423108723833266254e-02,3.201182639754254211e-01
3.359443999999999960e+03,1.455179324306410393e-02,3.249971606279231651e-01
3.361373000000000047e+03,1.487740054473274398e-02,3.263261134553916420e-01
3.363302000000000135e+03,1.520774402967806083e-02,3.247478653327111608e-01
3.365230000000000018e+03,1.554264876450073274e-02,3.188470575743576063e-01
3.367157999999999902e+03,1.588228477336528499e-02,3.090053417244305045e-01
3.369086999999999989e+03,1.622683189763574063e-02,2.950145538352755281e-01
3.371014999999999873e+03,1.657593290856773649e-02,2.808546873186621440e-01
3.372943999999999960e+03,1.692994994414043219e-02,2.682265037716353717e-01
3.374871999999999844e+03,1.728851595713987166e-02,2.542961987631677800e-01
3.376800999999999931e+03,1.765200290401214289e-02,2.390230452117139137e-01
3.378728999999999814e+03,1.802003391907991414e-02,2.243450868358713990e-01
3.380657999999999902e+03,1.839299077725264908e-02,2.104360897467429936e-01
3.382585999999999785e+03,1.877048679438697576e-02,1.973957763210281158e-01
3.384514999999999873e+03,1.915291356386283894e-02,1.857291253012269827e-01
3.386443000000000211e+03,1.953987458306372105e-02,1.759276240200282615e-01
3.388371999999999844e+03,1.993177126383915976e-02,1.662611883189510920e-01
3.390300000000000182e+03,2.032819728510837365e-02,1.585716599198332410e-01
3.392228999999999814e+03,2.072956387718516424e-02,1.515042475091683549e-01
3.394157000000000153e+03,2.113545490052182174e-02,1.471252392076300985e-01
3.396085999999999785e+03,2.154629140389818787e-02,1.413384791927372319e-01
3.398014000000000124e+03,2.196164742930228897e-02,1.361351427861321461e-01
3.399943000000000211e+03,2.238195384397911880e-02,1.332345482979468976e-01
3.401871000000000095e+03,2.280677487145243987e-02,1.316863026724726105e-01
3.403800000000000182e+03,2.323655119743062158e-02,1.303047662421921160e-01
3.405728000000000065e+03,2.367083722696872172e-02,1.315697414034402435e-01
3.407657000000000153e+03,2.411008346424914350e-02,1.323681558106004630e-01
3.409585000000000036e+03,2.455383449585557543e-02,1.346620343810300824e-01
3.411514000000000124e+03,2.500255064443557274e-02,1.367314780387451911e-01
3.413442000000000007e+03,2.545576667810856009e-02,1.375544152303782575e-01
3.415371000000000095e+03,2.591395273799079746e-02,1.398316858042578659e-01
3.417298999999999978e+03,2.637663377373211659e-02,1.445363233256657942e-01
3.419228000000000065e+03,2.684428974491392950e-02,1.510799047047042265e-01
3.421155999999999949e+03,2.731643578272358042e-02,1.588274768018664851e-01
3.423085000000000036e+03,2.779356166520585703e-02,1.655953375711507469e-01
3.425012999999999920e+03,2.827517270508117520e-02,1.741436514086576182e-01
3.426942000000000007e+03,2.876176849886658005e-02,1.846224743769013799e-01
3.428869999999999891e+03,2.925284454080934182e-02,1.969314231688819028e-01
3.430798999999999978e+03,2.974891024589343402e-02,2.106717143272729409e-01
3.432726999999999862e+03,3.024945128990452758e-02,2.296757365166390841e-01
3.434655999999999949e+03,3.075498690629085985e-02,2.498071910287684716e-01
3.436583999999999833e+03,3.126499295236850884e-02,2.740969614773822727e-01
3.438512999999999920e+03,3.177999848005441663e-02,3.001946088335358809e-01
3.440440999999999804e+03,3.229946952819950923e-02,3.216748894461596286e-01
3.442369999999999891e+03,3.282394496718854526e-02,3.373576530957653752e-01
3.444297999999999774e+03,3.335288101740108146e-02,3.422052614051485087e-01
3.446226999999999862e+03,3.388682636768880485e-02,3.327683546095254741e-01
3.448155000000000200e+03,3.442522741996967284e-02,3.218928330506334312e-01
3.450083999999999833e+03,3.496864268155874811e-02,3.144704210795392640e-01
3.452012000000000171e+03,3.551650873590705970e-02,3.117495867505271079e-01
3.453940999999999804e+03,3.606939390879748686e-02,3.102778464214934750e-01
3.455869000000000142e+03,3.662672496521146570e-02,3.065138350397553779e-01
3.457797999999999774e+03,3.718908004940235656e-02,3.027013402647464879e-01
3.459726000000000113e+03,3.775587610788555537e-02,2.995456077190219446e-01
3.461655000000000200e+03,3.832770110337602176e-02,2.924921287842501272e-01
3.463583000000000084e+03,3.890396216392755235e-02,2.782727311992063690e-01
3.465512000000000171e+03,3.948525707071937063e-02,2.562597606234509051e-01
3.467440000000000055e+03,4.007098313333656847e-02,2.305793552288664117e-01
3.469369000000000142e+03,4.066174795143151499e-02,2.081316338080521078e-01
3.471297000000000025e+03,4.125693901611615644e-02,1.921437563337313748e-01
3.473226000000000113e+03,4.185717374550979031e-02,1.814981996946096743e-01
3.475153999999999996e+03,4.246182981226187536e-02,1.718251261696090992e-01
3.477083000000000084e+03,4.307153445295774929e-02,1.653890727364633051e-01
3.479010999999999967e+03,4.368565552177727795e-02,1.594576982995423720e-01
3.480940000000000055e+03,4.430483007377272742e-02,1.507010679829727806e-01
3.482867999999999938e+03,4.492841614466058786e-02,1.430128516271156336e-01
3.484797000000000025e+03,4.555706060795650103e-02,1.373481979752679827e-01
3.486724999999999909e+03,4.619011168091091690e-02,1.319290290653478692e-01
3.488653999999999996e+03,4.682822605550818196e-02,1.253382233143307545e-01
3.490581999999999880e+03,4.747074213053181779e-02,1.199673282736406499e-01
3.492510999999999967e+03,4.811832641642954655e-02,1.166140880617470010e-01
3.494438999999999851e+03,4.877030749351884964e-02,1.125126750606497694e-01
3.496367999999999938e+03,4.942736169071881847e-02,1.094343133573967286e-01
3.498295999999999822e+03,5.008880776987556516e-02,1.079545895108098286e-01
3.500224999999999909e+03,5.075533187837510951e-02,1.055167858344203680e-01
3.502152999999999793e+03,5.142624295959929981e-02,1.024593347395374998e-01
3.504081999999999880e+03,5.210223697940108423e-02,1.015160656219520341e-01
3.506010000000000218e+03,5.278261306269360631e-02,1.000788757309982735e-01
3.507938999999999851e+03,5.346807699379407808e-02,9.681875481846091702e-02
3.509867000000000189e+03,5.415791807915315559e-02,9.679260032899206223e-02
3.511795999999999822e+03,5.485285192155675560e-02,9.795586478546525200e-02
3.513724000000000160e+03,5.555215800898327672e-02,9.873324585269172005e-02
3.515652999999999793e+03,5.625656176268556408e-02,9.916623577875549600e-02
3.517581000000000131e+03,5.696533285218041698e-02,1.006844467467518101e-01
3.519510000000000218e+03,5.767920651718494440e-02,1.025821705238532111e-01
3.521438000000000102e+03,5.839744260874635273e-02,1.003568257217928306e-01
3.523367000000000189e+03,5.912078618505134386e-02,9.755177853836105584e-02
3.525295000000000073e+03,5.984848727868108398e-02,9.863726425791741192e-02
3.527224000000000160e+03,6.058130076628653882e-02,9.810715766793443038e-02
3.529152000000000044e+03,6.131846686198283436e-02,9.854836122518406683e-02
3.531081000000000131e+03,6.206075026088875290e-02,9.844430965095085639e-02
3.533009000000000015e+03,6.280738135865426841e-02,9.829369270852161833e-02
3.534938000000000102e+03,6.355913466886153884e-02,9.609660507162365306e-02
3.536865999999999985e+03,6.431523076869183342e-02,9.524614006386533660e-02
3.538795000000000073e+03,6.507645399020134391e-02,9.382185109454388439e-02
3.540722999999999956e+03,6.584201509209997027e-02,9.202071539774880904e-02
3.542652000000000044e+03,6.661270822490905630e-02,9.027311781345925823e-02
3.544579999999999927e+03,6.738773432887423809e-02,8.630134495342511869e-02
3.546509000000000015e+03,6.816789737298556417e-02,8.241104346019234583e-02
3.548436999999999898e+03,6.895238847901907775e-02,7.942440421980778709e-02
3.550365999999999985e+03,6.974202143442997937e-02,7.855995907094026620e-02
3.552293999999999869e+03,7.053597754253182472e-02,7.946774754593910473e-02
3.554222999999999956e+03,7.133508040924319005e-02,7.820518158864597780e-02
3.556150999999999840e+03,7.213850151941070266e-02,7.513038778337666201e-02
3.558079999999999927e+03,7.294707429742341986e-02,7.296215771350356150e-02
3.560007999999999811e+03,7.375996040966015244e-02,7.108203375436783489e-02
3.561936999999999898e+03,7.457800309897333335e-02,6.880034172004911852e-02
3.563864999999999782e+03,7.540035421327662135e-02,6.389932915420359905e-02
3.565793999999999869e+03,7.622786681389204233e-02,5.417599486115598495e-02
3.567722000000000207e+03,7.705968293026277394e-02,5.223317110835390409e-02
3.569650999999999840e+03,7.789666544217688227e-02,5.754817220605090711e-02
3.571579000000000178e+03,7.873794656061505748e-02,5.851666323636761646e-02
3.573507999999999811e+03,7.958439898383229405e-02,5.730204790261428371e-02
3.575436000000000149e+03,8.043514510433791287e-02,5.590619716920741666e-02
3.577364999999999782e+03,8.129106743885383679e-02,5.410130854674211065e-02
3.579293000000000120e+03,8.215127856142689922e-02,5.500430596703864694e-02
3.581222000000000207e+03,8.301667080724595138e-02,5.549329380441392345e-02
3.583150000000000091e+03,8.388634693188556923e-02,5.418529893637069605e-02
3.585079000000000178e+03,8.476120908900419693e-02,5.122035172306516060e-02
3.587007000000000062e+03,8.564035021571125839e-02,4.825143596421055392e-02
3.588936000000000149e+03,8.652468228413212614e-02,5.201756642760813065e-02
3.590864000000000033e+03,8.741328841290663121e-02,5.630062479253172825e-02
3.592793000000000120e+03,8.830709039262707449e-02,5.489617526826551241e-02
3.594721000000000004e+03,8.920516152346991134e-02,5.443890627313985320e-02
3.596650000000000091e+03,9.010843341449081834e-02,5.607055708653296833e-02
3.598577999999999975e+03,9.101596954740109879e-02,5.800960939343235978e-02
3.600507000000000062e+03,9.192871134972246949e-02,5.973174683615933844e-02
3.602434999999999945e+03,9.284571248470108173e-02,6.114603023585507557e-02
3.604364000000000033e+03,9.376792419832380432e-02,6.127615601524771805e-02
3.606291999999999916e+03,9.469439033536808381e-02,5.971114762949136789e-02
3.608221000000000004e+03,9.562607196029304646e-02,6.115172651242062329e-02
3.610148999999999887e+03,9.656200309940476956e-02,6.605859663983926211e-02
3.612077999999999975e+03,9.750315463562930773e-02,6.478063502104136617e-02
3.614005999999999858e+03,9.844855077680847444e-02,6.505023856943870086e-02
3.615934999999999945e+03,9.939917222433525268e-02,6.573586223273286677e-02
3.617862999999999829e+03,1.003540333675818630e-01,6.219951477918650440e-02
3.619791999999999916e+03,1.013141247264073286e-01,6.324476271383572268e-02
3.621719999999999800e+03,1.022784508717231589e-01,7.268429824356870128e-02
3.623648999999999887e+03,1.032480121418499763e-01,7.804117889310369094e-02
3.625577000000000226e+03,1.042218032892323620e-01,7.822371729188137834e-02
3.627505999999999858e+03,1.052008344706605314e-01,7.527069964494126353e-02
3.629434000000000196e+03,1.061840906201085843e-01,8.069738948171023551e-02
3.631362999999999829e+03,1.071725917128381056e-01,9.334426431249243095e-02
3.633291000000000167e+03,1.081653128643553785e-01,9.952451143563845193e-02
3.635219999999999800e+03,1.091632838683853635e-01,1.098576387118588293e-01
3.637148000000000138e+03,1.101654700219700800e-01,1.198373237943828329e-01
3.639077000000000226e+03,1.111729109373005286e-01,1.301125550091826177e-01
3.641005000000000109e+03,1.121845620929509124e-01,1.402438851660048336e-01
3.642934000000000196e+03,1.132014729195827130e-01,1.486359269686641227e-01
3.644862000000000080e+03,1.142225890773023167e-01,1.546583322612460343e-01
3.646791000000000167e+03,1.152489698152345809e-01,1.526044479534371945e-01
3.648719000000000051e+03,1.162795509750207401e-01,1.449090626712203900e-01
3.650648000000000138e+03,1.173154016242552444e-01,1.283883296726959777e-01
3.652576000000000022e+03,1.183554477861079590e-01,1.132041225870219492e-01
3.654505000000000109e+03,1.194007683466420389e-01,9.534840902965413534e-02
3.656432999999999993e+03,1.204502795105630852e-01,7.380190897891347745e-02
3.658362000000000080e+03,1.215050699823994051e-01,6.185806405870009073e-02
3.660289999999999964e+03,1.225640461483870070e-01,5.199453086781691269e-02
3.662219000000000051e+03,1.236283065315229024e-01,4.097341942613530463e-02
3.664146999999999935e+03,1.246967476995797242e-01,3.093434437219011457e-02
3.666076000000000022e+03,1.257704779940160833e-01,2.197367051284437878e-02
3.668003999999999905e+03,1.268483841641394605e-01,1.344527697697905921e-02
3.669932999999999993e+03,1.279315843698780597e-01,8.486122217319813643e-03
3.671860999999999876e+03,1.290189555420679923e-01,1.410049562823090241e-02
3.673789999999999964e+03,1.301116256591061671e-01,1.303793664299846000e-02
3.675717999999999847e+03,1.312084618333644315e-01,1.311201994474409105e-02
3.677646999999999935e+03,1.323106018617048463e-01,1.224828557853818722e-02
3.679574999999999818e+03,1.334169030380296661e-01,5.645305939433242770e-03
3.681503999999999905e+03,1.345285129776696564e-01,4.382829916723895991e-03
3.683431999999999789e+03,1.356442791560619199e-01,4.723262906395575556e-03
3.685360999999999876e+03,1.367653590070041503e-01,3.626396130513853677e-03
3.687289000000000215e+03,1.378905901874656337e-01,4.821669988506194215e-04
3.689217999999999847e+03,1.390211399497056632e-01,-3.358695049972659774e-03
3.691146000000000186e+03,1.401558361322345903e-01,-2.261752814422646196e-03
3.693074999999999818e+03,1.412958558057768599e-01,1.527450831088739136e-03
3.695003000000000156e+03,1.424400169903732305e-01,2.671425239713087763e-03
3.696931999999999789e+03,1.435895065752168520e-01,3.366785720058107501e-03
3.698860000000000127e+03,1.447431327618788899e-01,3.841644043236946970e-03
