3.199378999999999905e+03,0.000000000000000000e+00
3.201307999999999993e+03,6.766704096841102967e-04
3.203235999999999876e+03,1.260994761460867974e-03
3.205164999999999964e+03,1.776339308424648711e-03
3.207092999999999847e+03,1.640000123763640794e-03
3.209021000000000186e+03,2.343959219719679576e-03
3.210949999999999818e+03,2.828371797041109859e-03
3.212878000000000156e+03,2.716268520272596687e-03
3.214806999999999789e+03,2.651562877160756893e-03
3.216735999999999876e+03,3.989960630301159217e-03
3.218664000000000215e+03,5.310178835482182169e-03
3.220592999999999847e+03,5.431592040294988544e-03
3.222521000000000186e+03,4.060131551809217920e-03
3.224449000000000069e+03,4.815364699415056182e-03
3.226378000000000156e+03,5.591995629552592995e-03
3.228306000000000040e+03,5.875410831059468819e-03
3.230235000000000127e+03,5.454441750558827740e-03
3.232164000000000215e+03,7.026028150004068329e-03
3.234092000000000098e+03,7.552061415290148294e-03
3.236021000000000186e+03,6.956827988982089428e-03
3.237949000000000069e+03,6.912609602058777947e-03
3.239876999999999953e+03,8.206013753668431332e-03
3.241806000000000040e+03,9.827935448479999114e-03
3.243733999999999924e+03,1.117135423474924227e-02
3.245663000000000011e+03,1.080301424045454484e-02
3.247592000000000098e+03,1.008363479150677089e-02
3.249519999999999982e+03,9.553148825245563747e-03
3.251447999999999865e+03,1.109455218065194537e-02
3.253376999999999953e+03,1.180938367583314608e-02
3.255304999999999836e+03,1.210697162865402576e-02
3.257233999999999924e+03,1.210700731161352961e-02
3.259161999999999807e+03,1.370430112965605185e-02
3.261090999999999894e+03,1.488894935295317912e-02
3.263019999999999982e+03,1.566042254528429711e-02
3.264947999999999865e+03,1.546587339074441403e-02
3.266876000000000204e+03,1.533658060383728816e-02
3.268804999999999836e+03,1.539082998209598263e-02
3.270733000000000175e+03,1.657140829130841764e-02
3.272661999999999807e+03,1.783088064951242335e-02
3.274590999999999894e+03,1.904033394133190782e-02
3.276518999999999778e+03,1.885099813387394740e-02
3.278447999999999865e+03,1.946593721446654435e-02
3.280376000000000204e+03,1.923545688935623943e-02
3.282304000000000087e+03,1.970302261597028926e-02
3.284233000000000175e+03,2.092068933820646903e-02
3.286161000000000058e+03,2.188663418024709706e-02
3.288090000000000146e+03,2.219183892099524380e-02
3.290018999999999778e+03,2.368440429335182118e-02
3.291947000000000116e+03,2.455150858453054863e-02
3.293875000000000000e+03,2.525388991710798836e-02
3.295804000000000087e+03,2.467699527145175709e-02
3.297731999999999971e+03,2.550906382051293386e-02
3.299661000000000058e+03,2.686197783470514744e-02
3.301588999999999942e+03,2.802594306919602152e-02
3.303518000000000029e+03,2.840742951683354611e-02
3.305447000000000116e+03,2.932681015826466009e-02
3.307375000000000000e+03,2.921277954909595742e-02
3.309302999999999884e+03,3.004072094304564844e-02
3.311231999999999971e+03,3.075445602752059637e-02
3.313159999999999854e+03,3.259350356616985689e-02
3.315088999999999942e+03,3.366205558320850555e-02
3.317016999999999825e+03,3.425926250978279797e-02
3.318945999999999913e+03,3.517658492734250519e-02
3.320875000000000000e+03,3.651338927600805695e-02
3.322802999999999884e+03,3.708892897889123907e-02
3.324731000000000222e+03,3.808914174056213242e-02
3.326659999999999854e+03,3.818721011686491973e-02
3.328588000000000193e+03,3.918033320278745124e-02
3.330516999999999825e+03,4.096633351182984994e-02
3.332445000000000164e+03,4.207745404077098406e-02
3.334373999999999796e+03,4.189194612124523542e-02
3.336302000000000135e+03,4.293810045600690573e-02
3.338231000000000222e+03,4.416092252150806419e-02
3.340159000000000106e+03,4.549162670824087595e-02
3.342088000000000193e+03,4.614762700075245028e-02
3.344016000000000076e+03,4.721248246620451949e-02
3.345945000000000164e+03,4.849650867271139421e-02
3.347873000000000047e+03,5.096081895819791485e-02
3.349802000000000135e+03,5.210364786382218338e-02
3.351730000000000018e+03,5.258457098700719534e-02
3.353659000000000106e+03,5.218248460664699773e-02
3.355586999999999989e+03,5.343046633634400411e-02
3.357516000000000076e+03,5.404919711866643106e-02
3.359443999999999960e+03,5.458143729314540726e-02
3.361373000000000047e+03,5.443517590112111060e-02
3.363302000000000135e+03,5.445608832708816183e-02
3.365230000000000018e+03,5.445502781867785080e-02
3.367157999999999902e+03,5.486284572065386334e-02
3.369086999999999989e+03,5.389259084557487811e-02
3.371014999999999873e+03,5.372654248028572999e-02
3.372943999999999960e+03,5.216016344042755104e-02
3.374871999999999844e+03,4.995273163086685897e-02
3.376800999999999931e+03,4.924962706351423969e-02
3.378728999999999814e+03,5.011989967583772854e-02
3.380657999999999902e+03,4.925300550933305044e-02
3.382585999999999785e+03,4.888557851049113445e-02
3.384514999999999873e+03,4.824395520309249230e-02
3.386443000000000211e+03,4.817267664263025218e-02
3.388371999999999844e+03,4.733684847931544926e-02
3.390300000000000182e+03,4.739987976726921237e-02
3.392228999999999814e+03,4.733358854630809187e-02
3.394157000000000153e+03,4.667101235853765573e-02
3.396085999999999785e+03,4.610853959618031739e-02
3.398014000000000124e+03,4.609653731314893033e-02
3.399943000000000211e+03,4.610973233128067006e-02
3.401871000000000095e+03,4.692265532275359530e-02
3.403800000000000182e+03,4.707391941399885482e-02
3.405728000000000065e+03,4.793075588215545135e-02
3.407657000000000153e+03,4.819187205297149890e-02
3.409585000000000036e+03,4.910221218990597214e-02
3.411514000000000124e+03,4.974283524513795074e-02
3.413442000000000007e+03,5.126320145850751797e-02
3.415371000000000095e+03,5.172378867997333429e-02
3.417298999999999978e+03,5.229080278202365151e-02
3.419228000000000065e+03,5.201814498578874457e-02
3.421155999999999949e+03,5.260081443105518728e-02
3.423085000000000036e+03,5.337985566045332086e-02
3.425012999999999920e+03,5.407254012836802681e-02
3.426942000000000007e+03,5.481169275037714450e-02
3.428869999999999891e+03,5.632216731103584229e-02
3.430798999999999978e+03,5.663591234075859848e-02
3.432726999999999862e+03,5.750896381968050031e-02
3.434655999999999949e+03,5.835829871029739324e-02
3.436583999999999833e+03,5.948521866335243491e-02
3.438512999999999920e+03,6.046963312227282561e-02
3.440440999999999804e+03,6.183368458699785297e-02
3.442369999999999891e+03,6.112920002959125465e-02
3.444297999999999774e+03,6.056893551879125037e-02
3.446226999999999862e+03,6.025137886409862031e-02
3.448155000000000200e+03,6.031666734773474814e-02
3.450083999999999833e+03,5.865105474955199794e-02
3.452012000000000171e+03,5.882692346972696884e-02
3.453940999999999804e+03,5.867356354701300236e-02
3.455869000000000142e+03,5.758780169237942559e-02
3.457797999999999774e+03,5.751301652958400179e-02
3.459726000000000113e+03,5.806205774664392749e-02
3.461655000000000200e+03,5.843566540407478527e-02
3.463583000000000084e+03,5.843736663095977502e-02
3.465512000000000171e+03,5.634110097981198662e-02
3.467440000000000055e+03,5.636770074499114491e-02
3.469369000000000142e+03,5.707252771461045204e-02
3.471297000000000025e+03,5.863480261674776373e-02
3.473226000000000113e+03,5.805410417875048190e-02
3.475153999999999996e+03,5.806980736779820962e-02
3.477083000000000084e+03,5.879578779704126845e-02
3.479010999999999967e+03,5.987373826836948909e-02
3.480940000000000055e+03,5.892348899724678124e-02
3.482867999999999938e+03,5.765618981586875802e-02
3.484797000000000025e+03,5.828584910680960351e-02
3.486724999999999909e+03,5.985242252571189303e-02
3.488653999999999996e+03,5.903285880403447150e-02
3.490581999999999880e+03,5.917402319635672869e-02
3.492510999999999967e+03,6.060103635730421101e-02
3.494438999999999851e+03,6.127976915693597593e-02
3.496367999999999938e+03,6.184199495948730640e-02
3.498295999999999822e+03,6.473002173063116538e-02
3.500224999999999909e+03,6.662748994975478678e-02
3.502152999999999793e+03,7.002953612431758734e-02
3.504081999999999880e+03,7.250015175112276000e-02
3.506010000000000218e+03,7.457843290255150581e-02
3.507938999999999851e+03,7.695672780806928071e-02
3.509867000000000189e+03,8.221242318483415468e-02
3.511795999999999822e+03,8.701388354461078722e-02
3.513724000000000160e+03,9.162123269746808019e-02
3.515652999999999793e+03,9.511884451493463066e-02
3.517581000000000131e+03,9.879957752489690326e-02
3.519510000000000218e+03,1.018990068783516278e-01
3.521438000000000102e+03,1.064357273614826571e-01
3.523367000000000189e+03,1.091731691310117713e-01
3.525295000000000073e+03,1.122581050948707193e-01
3.527224000000000160e+03,1.148534067851333940e-01
3.529152000000000044e+03,1.174033399968496261e-01
3.531081000000000131e+03,1.199924711421313517e-01
3.533009000000000015e+03,1.232603128913092316e-01
3.534938000000000102e+03,1.254100740735150377e-01
3.536865999999999985e+03,1.267430479415797007e-01
3.538795000000000073e+03,1.265865016997634318e-01
3.540722999999999956e+03,1.272563098913754576e-01
3.542652000000000044e+03,1.262577989455381799e-01
3.544579999999999927e+03,1.250579435223366231e-01
3.546509000000000015e+03,1.224755530089540745e-01
3.548436999999999898e+03,1.209571605030326236e-01
3.550365999999999985e+03,1.198866197902004049e-01
3.552293999999999869e+03,1.181708425186093758e-01
3.554222999999999956e+03,1.152271921370416896e-01
3.556150999999999840e+03,1.128909740128616335e-01
3.558079999999999927e+03,1.107480952570909505e-01
3.560007999999999811e+03,1.102816296848843081e-01
3.561936999999999898e+03,1.100511626884370375e-01
3.563864999999999782e+03,1.108218618901477825e-01
3.565793999999999869e+03,1.091600036023827602e-01
3.567722000000000207e+03,1.086132030002757709e-01
3.569650999999999840e+03,1.093975517551660226e-01
3.571579000000000178e+03,1.114845978132839033e-01
3.573507999999999811e+03,1.126906164817742528e-01
3.575436000000000149e+03,1.160648971967398746e-01
3.577364999999999782e+03,1.209555027535865745e-01
3.579293000000000120e+03,1.266705367655318881e-01
3.581222000000000207e+03,1.315902340868964349e-01
3.583150000000000091e+03,1.381780564991189619e-01
3.585079000000000178e+03,1.449323110858092845e-01
3.587007000000000062e+03,1.525969545699190355e-01
3.588936000000000149e+03,1.616326793693397268e-01
3.590864000000000033e+03,1.733219907232536883e-01
3.592793000000000120e+03,1.851353322204710994e-01
3.594721000000000004e+03,1.999431399669171772e-01
3.596650000000000091e+03,2.126673085061848156e-01
3.598577999999999975e+03,2.258299331973495638e-01
3.600507000000000062e+03,2.394088383693873667e-01
3.602434999999999945e+03,2.542477661773165365e-01
3.604364000000000033e+03,2.682487403673811110e-01
3.606291999999999916e+03,2.837095371664698495e-01
3.608221000000000004e+03,2.965671468558332968e-01
3.610148999999999887e+03,3.077319807886443881e-01
3.612077999999999975e+03,3.181842161861357376e-01
3.614005999999999858e+03,3.310116982559790921e-01
3.615934999999999945e+03,3.408543976874088832e-01
3.617862999999999829e+03,3.504757786624824734e-01
3.619791999999999916e+03,3.615264906186524962e-01
3.621719999999999800e+03,3.752094186014680588e-01
3.623648999999999887e+03,3.878909698816200291e-01
3.625577000000000226e+03,4.023103160835269643e-01
3.627505999999999858e+03,4.168106136904278225e-01
3.629434000000000196e+03,4.333937367432886267e-01
3.631362999999999829e+03,4.481395285171836385e-01
3.633291000000000167e+03,4.692491842358202381e-01
3.635219999999999800e+03,4.965723209525798598e-01
3.637148000000000138e+03,5.260470072797769348e-01
3.639077000000000226e+03,5.591171210690328852e-01
3.641005000000000109e+03,5.920677525655089202e-01
3.642934000000000196e+03,6.236395779215961888e-01
3.644862000000000080e+03,6.464715991692253638e-01
3.646791000000000167e+03,6.563624216525681954e-01
3.648719000000000051e+03,6.415797724453824458e-01
3.650648000000000138e+03,5.774979112046737528e-01
3.652576000000000022e+03,5.028086998671833507e-01
3.654505000000000109e+03,4.400496279894303697e-01
3.656432999999999993e+03,3.493590422641402737e-01
3.658362000000000080e+03,2.682819706047404051e-01
3.660289999999999964e+03,2.153909745632210937e-01
3.662219000000000051e+03,1.697396193360448946e-01
3.664146999999999935e+03,1.342278764535700386e-01
3.666076000000000022e+03,1.086835989829170457e-01
3.668003999999999905e+03,9.078293526583086637e-02
3.669932999999999993e+03,7.211824322541640631e-02
3.671860999999999876e+03,5.860674321508449469e-02
3.673789999999999964e+03,5.353157606336386709e-02
3.675717999999999847e+03,4.462399949708542590e-02
3.677646999999999935e+03,3.867234846381373270e-02
3.679574999999999818e+03,3.493674452979825262e-02
3.681503999999999905e+03,3.063068316561393112e-02
3.683431999999999789e+03,2.812283389631106689e-02
3.685360999999999876e+03,2.575643382095330058e-02
3.687289000000000215e+03,2.357644847430703794e-02
3.689217999999999847e+03,1.643771909183261437e-02
3.691146000000000186e+03,1.155714179386993501e-02
3.693074999999999818e+03,9.788824957343955635e-03
3.695003000000000156e+03,9.337668770592444378e-03
3.696931999999999789e+03,8.256364272932109616e-03
3.698860000000000127e+03,8.395028237640045354e-03
3.700789000000000215e+03,6.955161984001395625e-03
3.702717000000000098e+03,5.439710536574965394e-03
3.704646000000000186e+03,6.231215891609215296e-03
3.706574000000000069e+03,7.237508851117430142e-03
3.708503000000000156e+03,6.629183716593767262e-03
3.710431000000000040e+03,9.063592624856509072e-03
3.712360000000000127e+03,8.328913469506316058e-03
3.714288000000000011e+03,5.916985355270049096e-03
3.716217000000000098e+03,5.979096567464398104e-03
3.718144999999999982e+03,6.412365461271551936e-03
3.720074000000000069e+03,5.710856803546437988e-03
3.722001999999999953e+03,5.769245114474186309e-03
3.723931000000000040e+03,3.218942829175536202e-03
3.725858999999999924e+03,-2.364480069363128489e-04
3.727788000000000011e+03,-3.230854145905265318e-03
3.729715999999999894e+03,-1.870382869536696413e-03
3.731644999999999982e+03,-1.309615741429320801e-03
3.733572999999999865e+03,-3.184685496756406442e-03
3.735501999999999953e+03,-6.124549592876754600e-03
3.737429999999999836e+03,-8.092071962537555896e-03
3.739358999999999924e+03,-9.057510007155294973e-03
3.741286999999999807e+03,-5.673255236864155338e-03
3.743215999999999894e+03,-3.236182495348738364e-03
3.745143999999999778e+03,-5.950391903835394736e-03
3.747072999999999865e+03,-4.179656648412188868e-03
3.749001000000000204e+03,4.874890491596284292e-05
