wavenumber (/cm),baseline value (/cm),baseline-subtracted absorbance (/cm),
3.199378999999999905e+03,4.005090954240841938e-03,2.664535259100375697e-15
3.201307999999999993e+03,4.320859551098621409e-03,2.141548097749357282e-03
3.203235999999999876e+03,4.641196953500958955e-03,6.984183315946967952e-03
3.205164999999999964e+03,4.966435461660978490e-03,8.279668716646870763e-03
3.207092999999999847e+03,5.296237866131647820e-03,7.106133773528089392e-03
3.209021000000000186e+03,5.630771544645973847e-03,6.779360695994718355e-03
3.210949999999999818e+03,5.970213692129355820e-03,6.678013786606484814e-03
3.212878000000000156e+03,6.314212372710237275e-03,5.995652903256765143e-03
3.214806999999999789e+03,6.663124431494971134e-03,5.399022461160196684e-03
3.216735999999999876e+03,7.016772673556381790e-03,3.650949434843564489e-03
3.218664000000000215e+03,7.374970084229381939e-03,5.974194875105087732e-03
3.220592999999999847e+03,7.738088237592144480e-03,1.253725788521142803e-02
3.222521000000000186e+03,8.105750650332588236e-03,9.461766578201746825e-03
3.224449000000000069e+03,8.478144337115800511e-03,6.822966980944311643e-03
3.226378000000000156e+03,8.855466129802813668e-03,9.211523377864683226e-03
3.228306000000000040e+03,9.237324818655245906e-03,7.635773834104409019e-03
3.230235000000000127e+03,9.624116522642722771e-03,7.298960400434317819e-03
3.232164000000000215e+03,1.001564440990687643e-02,8.846961910326633927e-03
3.234092000000000098e+03,1.041170182884876283e-02,9.250556816460697718e-03
3.236021000000000186e+03,1.081269962741515656e-02,1.084682728634911442e-02
3.237949000000000069e+03,1.121822204842537474e-02,1.242118938759650959e-02
3.239876999999999953e+03,1.162847574347836144e-02,1.128547471284502279e-02
3.241806000000000040e+03,1.204367718136811760e-02,7.744924047911272424e-03
3.243733999999999924e+03,1.246339587849032426e-02,6.324398248286566826e-03
3.245663000000000011e+03,1.288806722768143231e-02,9.488849640761021220e-03
3.247592000000000098e+03,1.331747476014921716e-02,1.238346272044932306e-02
3.249519999999999982e+03,1.375139218736265434e-02,1.113219879792337608e-02
3.251447999999999865e+03,1.419004088861797186e-02,9.872478512884530488e-03
3.253376999999999953e+03,1.463365206041000732e-02,8.901146474388443863e-03
3.255304999999999836e+03,1.508176576373365663e-02,7.127211699480717755e-03
3.257233999999999924e+03,1.553484684682793215e-02,9.995357412190042368e-03
3.259161999999999807e+03,1.599242555221813689e-02,1.001583172722586568e-02
3.261090999999999894e+03,1.645497654661287612e-02,1.048455285054350483e-02
3.263019999999999982e+03,1.692226372428340397e-02,1.308394475650143107e-02
3.264947999999999865e+03,1.739404115976661558e-02,1.384237778851682421e-02
3.266876000000000204e+03,1.787054986929259570e-02,1.524828045292769829e-02
3.268804999999999836e+03,1.835204068628826235e-02,1.631332219941361572e-02
3.270733000000000175e+03,1.883801439788168608e-02,1.721246055089853400e-02
3.272661999999999807e+03,1.932897512617870461e-02,2.127107454166754508e-02
3.274590999999999894e+03,1.982467203775239994e-02,2.318395775053838648e-02
3.276518999999999778e+03,2.032484447943616601e-02,2.454074191157396001e-02
3.278447999999999865e+03,2.083001130231210141e-02,2.646122853130083996e-02
3.280376000000000204e+03,2.133964874606331108e-02,2.434638838065161792e-02
3.282304000000000087e+03,2.185401746385906563e-02,2.526928296452624068e-02
3.284233000000000175e+03,2.237338792605836346e-02,2.718301612187090655e-02
3.286161000000000058e+03,2.289722164592067344e-02,2.698792145956163679e-02
3.288090000000000146e+03,2.342606201942221134e-02,3.083730173546728182e-02
3.290018999999999778e+03,2.395963857619864967e-02,3.263904522587468549e-02
3.291947000000000116e+03,2.449767102615307834e-02,2.981691269521036247e-02
3.293875000000000000e+03,2.504043475015027553e-02,3.279373672808905127e-02
3.295804000000000087e+03,2.558821494625362902e-02,3.641029501835824078e-02
3.297731999999999971e+03,2.614044367231826982e-02,3.916221976593847742e-02
3.299661000000000058e+03,2.669769377972119884e-02,3.817844702862283057e-02
3.301588999999999942e+03,2.725938750785239506e-02,3.897547932023481820e-02
3.303518000000000029e+03,2.782610752655756414e-02,4.078629701805036589e-02
3.305447000000000116e+03,2.839756372853852184e-02,4.174305836123615165e-02
3.307375000000000000e+03,2.897345618676183676e-02,4.500649042030335778e-02
3.309302999999999884e+03,2.955407991902880838e-02,4.831889456411531114e-02
3.311231999999999971e+03,3.013973976033490487e-02,5.160267037190591211e-02
3.313159999999999854e+03,3.072982849466932009e-02,5.387158703894945333e-02
3.315088999999999942e+03,3.132495824727588030e-02,5.395876932458731901e-02
3.317016999999999825e+03,3.192451198367685095e-02,5.504823278567805289e-02
3.318945999999999913e+03,3.252911164758565121e-02,5.880478044901815693e-02
3.320875000000000000e+03,3.313844749476935192e-02,6.013404272687328245e-02
3.322802999999999884e+03,3.375219996126244126e-02,6.479346341490943573e-02
3.324731000000000222e+03,3.437068370179918730e-02,7.092080447104498475e-02
3.326659999999999854e+03,3.499422318830891498e-02,7.196082741080944700e-02
3.328588000000000193e+03,3.562217193091399281e-02,7.541247139186468829e-02
3.330516999999999825e+03,3.625518132872240784e-02,8.373488510202209412e-02
3.332445000000000164e+03,3.689259507339404109e-02,9.009567089792280825e-02
3.334373999999999796e+03,3.753507438250558437e-02,9.265180088911550982e-02
3.336302000000000135e+03,3.818195312924466123e-02,9.751556968692209892e-02
3.338231000000000222e+03,3.883390234965666821e-02,1.039161442139491243e-01
3.340159000000000106e+03,3.949024609846230049e-02,1.087847275154940618e-01
3.342088000000000193e+03,4.015166523017565936e-02,1.136367497446801877e-01
3.344016000000000076e+03,4.081747398104962343e-02,1.211937633691704264e-01
3.345945000000000164e+03,4.148836302406255783e-02,1.323298526585601209e-01
3.347873000000000047e+03,4.216363677700396551e-02,1.416486808488728322e-01
3.349802000000000135e+03,4.284399573131913996e-02,1.459236208329075524e-01
3.351730000000000018e+03,4.352873448632710307e-02,1.479588175096995251e-01
3.353659000000000106e+03,4.421856335194185306e-02,1.503912336307364761e-01
3.355586999999999989e+03,4.491276710901725977e-02,1.587648264838308343e-01
3.357516000000000076e+03,4.561206588593424982e-02,1.658571710917771114e-01
3.359443999999999960e+03,4.631573464507798832e-02,1.669887292526062161e-01
3.361373000000000047e+03,4.702450333329455390e-02,1.678162491345767116e-01
3.363302000000000135e+03,4.773800820478868445e-02,1.669372882501685140e-01
3.365230000000000018e+03,4.845587569402365347e-02,1.613094437323128183e-01
3.367157999999999902e+03,4.917847445730139100e-02,1.572870374319395026e-01
3.369086999999999989e+03,4.990618296811977217e-02,1.522552996170913886e-01
3.371014999999999873e+03,5.063824673346672967e-02,1.446578977999659621e-01
3.372943999999999960e+03,5.137542515558557454e-02,1.404315531768163261e-01
3.374871999999999844e+03,5.211695392299819929e-02,1.356389906973531900e-01
3.376800999999999931e+03,5.286360225641839605e-02,1.300500377758657677e-01
3.378728999999999814e+03,5.361459602590024076e-02,1.224911344018639880e-01
3.380657999999999902e+03,5.437071427062090123e-02,1.162408210866772151e-01
3.382585999999999785e+03,5.513117304216841319e-02,1.117167812634130009e-01
3.384514999999999873e+03,5.589676119819131372e-02,1.076963970559838835e-01
3.386443000000000211e+03,5.666668497180626929e-02,1.045449000533382744e-01
3.388371999999999844e+03,5.744174303912874535e-02,9.780131898359423204e-02
3.390300000000000182e+03,5.822113181481203270e-02,9.449228471216386538e-02
3.392228999999999814e+03,5.900565979343674883e-02,9.429011223114880380e-02
3.394157000000000153e+03,5.979451357118570343e-02,9.195845097838928339e-02
3.396085999999999785e+03,6.058851146110999508e-02,8.823870651865028947e-02
3.398014000000000124e+03,6.138683024092816964e-02,8.795196655549597509e-02
3.399943000000000211e+03,6.219029804215381318e-02,8.811019242782824890e-02
3.401871000000000095e+03,6.299808182403943135e-02,8.425218203639373016e-02
3.403800000000000182e+03,6.381101953656553860e-02,8.084223681160596087e-02
3.405728000000000065e+03,6.462826832051771220e-02,7.963509543437119476e-02
3.407657000000000153e+03,6.545067594434428315e-02,8.763152434124554802e-02
3.409585000000000036e+03,6.627738973036567671e-02,9.215931480803396525e-02
3.411514000000000124e+03,6.710926726549271137e-02,9.158664134567029436e-02
3.413442000000000007e+03,6.794544605357977218e-02,9.320591670795241868e-02
3.415371000000000095e+03,6.878679350000815873e-02,9.432862215778037296e-02
3.417298999999999978e+03,6.963243729016443950e-02,1.012330249312300978e-01
3.419228000000000065e+03,7.048325464789328976e-02,1.077628495304141509e-01
3.421155999999999949e+03,7.133836344011523778e-02,1.127170162084847327e-01
3.423085000000000036e+03,7.219865070914721628e-02,1.175384201296187925e-01
3.425012999999999920e+03,7.306322450343660790e-02,1.216713629430152821e-01
3.426942000000000007e+03,7.393298168376727375e-02,1.296260299260918458e-01
3.428869999999999891e+03,7.480702048012410899e-02,1.395513330307718292e-01
3.430798999999999978e+03,7.568624757175701490e-02,1.476120078451426121e-01
3.432726999999999862e+03,7.656975137018129374e-02,1.589263062445205321e-01
3.434655999999999949e+03,7.745844837311377518e-02,1.765860664341130093e-01
3.436583999999999833e+03,7.835141717360549762e-02,1.962028139060492116e-01
3.438512999999999920e+03,7.924958408784110730e-02,2.146136430804708173e-01
3.440440999999999804e+03,8.015201789039938518e-02,2.304474109293683792e-01
3.442369999999999891e+03,8.105965471593368221e-02,2.373941231446237143e-01
3.444297999999999774e+03,8.197155352056029187e-02,2.347348474231285564e-01
3.446226999999999862e+03,8.288866025739682897e-02,2.249846246497861912e-01
3.448155000000000200e+03,8.381002406409177041e-02,2.155067326255464266e-01
3.450083999999999833e+03,8.473660071222699486e-02,2.075009357625976492e-01
3.452012000000000171e+03,8.566742952098937991e-02,2.048602913457144847e-01
3.453940999999999804e+03,8.660347608042684442e-02,2.030097355666831138e-01
3.455869000000000142e+03,8.754376989125578490e-02,2.009562611511481744e-01
3.457797999999999774e+03,8.848928636199282494e-02,1.986486039962362948e-01
3.459726000000000113e+03,8.943904517489009720e-02,1.972561805033863358e-01
3.461655000000000200e+03,9.039403155693026548e-02,1.954093458566164010e-01
3.463583000000000084e+03,9.135325537189320499e-02,1.839711377491100031e-01
3.465512000000000171e+03,9.231771166523294880e-02,1.672169626999497893e-01
3.467440000000000055e+03,9.328640048226422010e-02,1.524989723370067107e-01
3.469369000000000142e+03,9.426032668690531580e-02,1.388588140593542963e-01
3.471297000000000025e+03,9.523848050600403070e-02,1.259315076978824166e-01
3.473226000000000113e+03,9.622187662194559010e-02,1.148472237691886555e-01
3.475153999999999996e+03,9.720949544311086044e-02,1.072885488854420366e-01
3.477083000000000084e+03,9.820236147035465990e-02,1.038175677529644680e-01
3.479010999999999967e+03,9.919944529358737384e-02,1.023116989294212686e-01
3.480940000000000055e+03,1.002017812321307488e-01,1.013919357853150238e-01
3.482867999999999938e+03,1.012083300574309064e-01,1.000765150409734794e-01
3.484797000000000025e+03,1.022201359072765214e-01,9.711493580067642739e-02
3.486724999999999909e+03,1.032361497346441226e-01,9.039363855616100452e-02
3.488653999999999996e+03,1.042574254957893132e-01,8.803971239456931386e-02
3.490581999999999880e+03,1.052829043252243579e-01,8.564526355209611808e-02
3.492510999999999967e+03,1.063136499976717886e-01,8.130446634925814209e-02
3.494438999999999851e+03,1.073485938291742769e-01,8.097325381470721339e-02
3.496367999999999938e+03,1.083888094129203949e-01,8.233820368697442049e-02
3.498295999999999822e+03,1.094332182464921033e-01,7.865053415929423863e-02
3.500224999999999909e+03,1.104829037415395732e-01,7.390959641367222943e-02
3.502152999999999793e+03,1.115367775771769487e-01,7.532359368997365578e-02
3.504081999999999880e+03,1.125959329835248823e-01,8.121359082599921564e-02
3.506010000000000218e+03,1.136592718212305897e-01,8.044825906596120291e-02
3.507938999999999851e+03,1.147278971388807634e-01,7.995515991705781644e-02
3.509867000000000189e+03,1.158007009786539143e-01,7.727808464250429665e-02
3.511795999999999822e+03,1.168787962076027753e-01,7.364985593121886609e-02
3.513724000000000160e+03,1.179610650494433699e-01,7.562278048355475235e-02
3.515652999999999793e+03,1.190486301896944710e-01,7.838788809428143267e-02
3.517581000000000131e+03,1.201403640336025092e-01,7.993289603965747503e-02
3.519510000000000218e+03,1.212373990851540739e-01,8.050532147112576808e-02
3.521438000000000102e+03,1.223385979311286675e-01,8.081034352289728773e-02
3.523367000000000189e+03,1.234451028939833606e-01,8.089090008608756932e-02
3.525295000000000073e+03,1.245557667420253978e-01,8.531913237016208740e-02
3.527224000000000160e+03,1.256717416161778900e-01,8.819086470405546052e-02
3.529152000000000044e+03,1.267918704662882590e-01,8.590850825103979460e-02
3.531081000000000131e+03,1.279173152517429912e-01,8.514005111070810372e-02
3.533009000000000015e+03,1.290469091039208038e-01,8.140693084144468017e-02
3.534938000000000102e+03,1.301818238006751116e-01,7.542909070854442177e-02
3.536865999999999985e+03,1.313208826549212560e-01,7.275094946775828575e-02
3.538795000000000073e+03,1.324652672629769157e-01,7.594505123208739050e-02
3.540722999999999956e+03,1.336137911192887273e-01,7.869576373263909019e-02
3.542652000000000044e+03,1.347676456386448507e-01,7.614034467612507129e-02
3.544579999999999927e+03,1.359256344970258823e-01,7.296087447422916483e-02
3.546509000000000015e+03,1.370889589276833576e-01,7.069616555235613831e-02
3.548436999999999898e+03,1.382564127881300564e-01,7.070056244003186663e-02
3.550365999999999985e+03,1.394292071300888836e-01,6.831214756041825709e-02
3.552293999999999869e+03,1.406061259926039142e-01,6.296685469902074672e-02
3.554222999999999956e+03,1.417883902458632051e-01,5.652476552491991768e-02
3.556150999999999840e+03,1.429747741104447911e-01,5.683990273813055438e-02
3.558079999999999927e+03,1.441665082750063220e-01,5.920531763919267831e-02
3.560007999999999811e+03,1.453623571416553517e-01,5.753017405596061451e-02
3.561936999999999898e+03,1.465635612175155700e-01,4.886016759604361326e-02
3.563864999999999782e+03,1.477688750862320433e-01,4.842905128118557556e-02
3.565793999999999869e+03,1.489795490733953898e-01,5.283581070806642188e-02
3.567722000000000207e+03,1.501943279441784185e-01,4.863351088366041353e-02
3.569650999999999840e+03,1.514144718426422287e-01,4.464717837155030011e-02
3.571579000000000178e+03,1.526387157154935892e-01,4.409500254364884242e-02
3.573507999999999811e+03,1.538683295252578631e-01,4.171930318101901847e-02
3.575436000000000149e+03,1.551020384001775554e-01,3.984270612083795626e-02
3.577364999999999782e+03,1.563411221212405167e-01,3.853843335153550598e-02
3.579293000000000120e+03,1.575842959982276525e-01,3.633822216157867047e-02
3.581222000000000207e+03,1.588328496305928539e-01,3.533831818464294727e-02
3.583150000000000091e+03,1.600854885096474334e-01,3.412075722202168038e-02
3.585079000000000178e+03,1.613435120533139866e-01,3.359812822730967596e-02
3.587007000000000062e+03,1.626056159344342333e-01,3.668320259167234809e-02
3.588936000000000149e+03,1.638731093894012503e-01,4.248033942167461774e-02
3.590864000000000033e+03,1.651446782725916052e-01,4.077697069990504630e-02
3.592793000000000120e+03,1.664216416388590858e-01,3.477535345644122700e-02
3.594721000000000004e+03,1.677026755241142197e-01,3.313484853374903949e-02
3.596650000000000091e+03,1.689891088016830523e-01,3.767197023227719654e-02
3.598577999999999975e+03,1.702796076890074062e-01,3.738476183976890965e-02
3.600507000000000062e+03,1.715755108778775906e-01,3.811158169057105027e-02
3.602434999999999945e+03,1.728754747672676118e-01,4.137919711452298088e-02
3.604364000000000033e+03,1.741808478674391480e-01,3.882436725641991160e-02
3.606291999999999916e+03,1.754902767588975010e-01,3.764997282203008666e-02
3.608221000000000004e+03,1.768051197703686128e-01,3.917550976958317221e-02
3.610148999999999887e+03,1.781240136638935212e-01,4.032045147548712904e-02
3.612077999999999975e+03,1.794483265866677613e-01,4.010807746126188178e-02
3.614005999999999858e+03,1.807766854822601132e-01,4.470540305067571829e-02
3.615934999999999945e+03,1.821104683163330407e-01,4.254744439242719167e-02
3.617862999999999829e+03,1.834482922139928363e-01,3.937563527095155891e-02
3.619791999999999916e+03,1.847915449593680037e-01,3.873021576578250524e-02
3.621719999999999800e+03,1.861388338590961311e-01,3.918183417343601427e-02
3.623648999999999887e+03,1.874915565157708741e-01,3.811563290497788081e-02
3.625577000000000226e+03,1.888483104175664451e-01,3.846931545938159225e-02
3.627505999999999858e+03,1.902105029855425400e-01,4.552923749996051761e-02
3.629434000000000196e+03,1.915767218894055546e-01,5.639310489398074999e-02
3.631362999999999829e+03,1.929483843686812250e-01,5.092974315351384007e-02
3.633291000000000167e+03,1.943240682746116832e-01,4.957734105052646889e-02
3.635219999999999800e+03,1.957052006651895937e-01,5.407098360251993974e-02
3.637148000000000138e+03,1.970903495731874955e-01,5.902562484787154951e-02
3.639077000000000226e+03,1.984809518750658697e-01,6.454413038730466567e-02
3.641005000000000109e+03,1.998755657851303269e-01,7.071548158557816599e-02
3.642934000000000196e+03,2.012756379983109412e-01,7.698816035023314797e-02
3.644862000000000080e+03,2.026797169104428420e-01,8.153056433373651046e-02
3.646791000000000167e+03,2.040892590349221436e-01,8.396314054290110462e-02
3.648719000000000051e+03,2.055028029491223762e-01,8.330268534789109225e-02
3.650648000000000138e+03,2.069218149849039179e-01,8.041505718247665691e-02
3.652576000000000022e+03,2.083448239011707059e-01,5.897435409597351352e-02
3.654505000000000109e+03,2.097733058482527113e-01,4.474615773900780802e-02
3.656432999999999993e+03,2.112057797665869430e-01,3.419404639595091666e-02
3.658362000000000080e+03,2.126437316249703002e-01,2.455934778149915232e-02
3.660289999999999964e+03,2.140856705453719755e-01,1.359018467285610932e-02
3.662219000000000051e+03,2.155330923150549083e-01,5.462748002819317605e-03
3.664146999999999935e+03,2.169844962375249153e-01,4.533787738385974819e-03
3.666076000000000022e+03,2.184413879185100882e-01,1.599898478708450256e-03
3.668003999999999905e+03,2.199022568430466507e-01,1.020323401567324595e-03
3.669932999999999993e+03,2.213686184353313990e-01,-2.046894961065692797e-03
3.671860999999999876e+03,2.228389523619371815e-01,-2.732166492439347394e-03
3.673789999999999964e+03,2.243147838655223936e-01,-3.883915299060625159e-03
3.675717999999999847e+03,2.257945827941938433e-01,-1.376007019685765442e-03
3.677646999999999935e+03,2.272798842090804072e-01,4.731353141139926777e-03
3.679574999999999818e+03,2.287691481398210769e-01,-3.531984173843483177e-03
3.681503999999999905e+03,2.302639194660081046e-01,-1.428546289433141325e-02
3.683431999999999789e+03,2.317626483988144415e-01,-1.457043383371869893e-02
3.685360999999999876e+03,2.332668896363028210e-01,-9.573153993414518226e-03
3.687289000000000215e+03,2.347750835711774897e-01,-5.040185700686539150e-03
3.689217999999999847e+03,2.362887947199672212e-01,-1.035957381581020798e-04
3.691146000000000186e+03,2.378064536569093335e-01,2.580524584443466551e-04
3.693074999999999818e+03,2.393296347169977523e-01,-4.952034915668868109e-03
3.695003000000000156e+03,2.408567586560073082e-01,-1.017848213027305881e-02
3.696931999999999789e+03,2.423894096273988552e-01,-9.077805976811958999e-03
3.698860000000000127e+03,2.439259985684758547e-01,-4.452788163062271209e-03
