wavenumber (/cm),baseline value (/cm),baseline-subtracted absorbance (/cm),
3.199378999999999905e+03,8.791208791210536333e-03,-2.220446049250313081e-15
3.201307999999999993e+03,8.455706094554926722e-03,-3.340819559816132767e-04
3.203235999999999876e+03,8.125109824643317324e-03,1.085773920945776183e-04
3.205164999999999964e+03,7.799077039286395063e-03,2.553254245248215426e-03
3.207092999999999847e+03,7.477945771442229272e-03,2.658019957743729123e-03
3.209021000000000186e+03,7.161545777641720179e-03,3.131494515398181022e-03
3.210949999999999818e+03,6.849716631610824891e-03,6.028224636160928185e-03
3.212878000000000156e+03,6.542781639877759403e-03,6.341988956756861029e-03
3.214806999999999789e+03,6.240422405148216001e-03,5.391476769123659807e-03
3.216735999999999876e+03,5.942799353694461217e-03,7.026096157573658019e-03
3.218664000000000215e+03,5.650063092052626246e-03,7.734179783715600109e-03
3.220592999999999847e+03,5.361909951899335169e-03,8.459720395154413097e-03
3.222521000000000186e+03,5.078638692324943804e-03,1.024109806808981560e-02
3.224449000000000069e+03,4.800098706795097314e-03,1.081609301109143217e-02
3.226378000000000156e+03,4.526149205966945033e-03,1.006905784686695782e-02
3.228306000000000040e+03,4.257074222502765792e-03,1.017950614628082562e-02
3.230235000000000127e+03,3.992594632975965396e-03,1.178750097762781834e-02
3.232164000000000215e+03,3.732851226726729976e-03,1.511268177134850177e-02
3.234092000000000098e+03,3.477974973354669430e-03,1.530919830534394066e-02
3.236021000000000186e+03,3.227701478405009539e-03,1.364601802243292639e-02
3.237949000000000069e+03,2.982290227101280777e-03,1.454549272441019170e-02
3.239876999999999953e+03,2.741610249839432356e-03,1.776438093411725205e-02
3.241806000000000040e+03,2.505540394214911259e-03,1.951004289255431345e-02
3.243733999999999924e+03,2.274325419020506445e-03,2.088610172445726221e-02
3.245663000000000011e+03,2.047725474698225412e-03,2.198064728248771971e-02
3.247592000000000098e+03,1.825861713651732998e-03,2.318562397579970735e-02
3.249519999999999982e+03,1.608845468548558699e-03,2.385648016626840118e-02
3.251447999999999865e+03,1.396560497489929276e-03,2.466974607729088831e-02
3.253376999999999953e+03,1.188900375768575657e-03,2.579719262727353524e-02
3.255304999999999836e+03,9.860804067765016612e-04,2.866189873272784183e-02
3.257233999999999924e+03,7.878901963547235709e-04,3.136831518018956544e-02
3.259161999999999807e+03,5.945352294318695385e-04,3.265187937291491593e-02
3.261090999999999894e+03,4.058149303114433337e-04,3.435671067967094316e-02
3.263019999999999982e+03,2.218308144676939264e-04,3.591494201722023050e-02
3.264947999999999865e+03,4.267457763607040988e-05,3.573773145700664955e-02
3.266876000000000204e+03,-1.317503851545609450e-04,3.826703318145430188e-02
3.268804999999999836e+03,-3.015308616722833790e-04,4.084818759476949168e-02
3.270733000000000175e+03,-4.664908223945829491e-04,4.329942060447677932e-02
3.272661999999999807e+03,-6.268013876109534976e-04,4.714818960391431446e-02
3.274590999999999894e+03,-7.823757695515354271e-04,5.022019783449227504e-02
3.276518999999999778e+03,-9.331370001826044813e-04,5.236760648549942943e-02
3.278447999999999865e+03,-1.079241470821834525e-03,5.512996475883280567e-02
3.280376000000000204e+03,-1.220537699386348152e-03,5.577166453864856877e-02
3.282304000000000087e+03,-1.357102653904540546e-03,5.799769370127494383e-02
3.284233000000000175e+03,-1.489003485220408152e-03,6.111649463813551009e-02
3.286161000000000058e+03,-1.616103437672933296e-03,6.402313143792115469e-02
3.288090000000000146e+03,-1.738534357685672660e-03,6.744816371138240285e-02
3.290018999999999778e+03,-1.856229094423511583e-03,7.171312361233495025e-02
3.291947000000000116e+03,-1.969130316784806212e-03,7.479833501039578891e-02
3.293875000000000000e+03,-2.077300265102444143e-03,7.693171139069976405e-02
3.295804000000000087e+03,-2.180791362513367915e-03,7.949562342310789731e-02
3.297731999999999971e+03,-2.279496308764450418e-03,8.229284454245133773e-02
3.299661000000000058e+03,-2.373517494875798661e-03,8.469828312472582610e-02
3.301588999999999942e+03,-2.462757439057661202e-03,8.911700714415493607e-02
3.303518000000000029e+03,-2.547308713868545738e-03,9.201958784716390838e-02
3.305447000000000116e+03,-2.627123805401865297e-03,9.488576911489410293e-02
3.307375000000000000e+03,-2.702165019494273679e-03,9.884142124349581948e-02
3.309302999999999884e+03,-2.772474959541249007e-03,1.027529182450690470e-01
3.311231999999999971e+03,-2.838086411750317950e-03,1.069384775460391346e-01
3.313159999999999854e+03,-2.898931349730737850e-03,1.106700867480050476e-01
3.315088999999999942e+03,-2.955072890637566729e-03,1.139012453622334498e-01
3.317016999999999825e+03,-3.006452826551431201e-03,1.191326712409050970e-01
3.318945999999999913e+03,-3.053124456158684552e-03,1.253182886704751198e-01
3.320875000000000000e+03,-3.095059902489261106e-03,1.315131389985340071e-01
3.322802999999999884e+03,-3.132241108310118705e-03,1.372031419588712886e-01
3.324731000000000222e+03,-3.164691040088207785e-03,1.445293151165762957e-01
3.326659999999999854e+03,-3.192422847094533722e-03,1.514087263176349119e-01
3.328588000000000193e+03,-3.215407776805179196e-03,1.593444200075122552e-01
3.330516999999999825e+03,-3.233669672508376891e-03,1.681104313289307761e-01
3.332445000000000164e+03,-3.247189600152466937e-03,1.766978632203168864e-01
3.334373999999999796e+03,-3.255981584556977282e-03,1.851284593892374986e-01
3.336302000000000135e+03,-3.260036510132735543e-03,1.968044581901473578e-01
3.338231000000000222e+03,-3.259358583234117646e-03,2.090624255727417946e-01
3.340159000000000106e+03,-3.253948506743320479e-03,2.218371731916626288e-01
3.342088000000000193e+03,-3.243800668545127053e-03,2.357681689556252458e-01
3.344016000000000076e+03,-3.228925589986886280e-03,2.502469922690706561e-01
3.345945000000000164e+03,-3.209307840487340968e-03,2.637680711111145548e-01
3.347873000000000047e+03,-3.184967759860768410e-03,2.792214736268747721e-01
3.349802000000000135e+03,-3.155880099061647570e-03,2.936395207521935724e-01
3.351730000000000018e+03,-3.122075016366743228e-03,3.062865376723546973e-01
3.353659000000000106e+03,-3.083517444266270502e-03,3.181123868799153875e-01
3.355586999999999989e+03,-3.040247359505698910e-03,3.277357213770133448e-01
3.357516000000000076e+03,-2.992219876104762477e-03,3.341972859964252862e-01
3.359443999999999960e+03,-2.939484789274970922e-03,3.371370386478456105e-01
3.361373000000000047e+03,-2.881987394573570782e-03,3.368405147429309743e-01
3.363302000000000135e+03,-2.819753816594605667e-03,3.345370196016572706e-01
3.365230000000000018e+03,-2.752819999673583595e-03,3.280660378552635592e-01
3.367157999999999902e+03,-2.681154908710681184e-03,3.177876303541684599e-01
3.369086999999999989e+03,-2.604717691406577273e-03,3.068463517635486859e-01
3.371014999999999873e+03,-2.523587598376231256e-03,2.965740004623480530e-01
3.372943999999999960e+03,-2.437680469770775460e-03,2.839438579081510206e-01
3.374871999999999844e+03,-2.347085374672985836e-03,2.699866209803096773e-01
3.376800999999999931e+03,-2.251708334767066333e-03,2.566175120226046324e-01
3.378728999999999814e+03,-2.151648237600056746e-03,2.451528278489485402e-01
3.380657999999999902e+03,-2.046801286394561714e-03,2.333201606953472229e-01
3.382585999999999785e+03,-1.937276187161884877e-03,2.204304779007020265e-01
3.384514999999999873e+03,-1.822959324654149782e-03,2.081754768636119302e-01
3.386443000000000211e+03,-1.703969223354029339e-03,1.988306843161704585e-01
3.388371999999999844e+03,-1.580182449544942358e-03,1.910766746579013464e-01
3.390300000000000182e+03,-1.451727346177378308e-03,1.834980426128312025e-01
3.392228999999999814e+03,-1.318470661066939442e-03,1.770662821715895952e-01
3.394157000000000153e+03,-1.180550555633708143e-03,1.718249908610900434e-01
3.396085999999999785e+03,-1.037823959222805570e-03,1.676808983989075408e-01
3.398014000000000124e+03,-8.904388517203543074e-04,1.646496739668878995e-01
3.399943000000000211e+03,-7.382423440098762057e-04,1.626752883488520318e-01
3.401871000000000095e+03,-5.813922344382049801e-04,1.623818516620163521e-01
3.403800000000000182e+03,-4.197258154272631714e-04,1.606028759985775878e-01
3.405728000000000065e+03,-2.534107037899246961e-04,1.597939831257177978e-01
3.407657000000000153e+03,-8.227437347763100206e-05,1.610166507315824447e-01
3.409585000000000036e+03,9.350574022892743642e-05,1.635136215957113670e-01
3.411514000000000124e+03,2.741119818416848375e-04,1.642642874718118762e-01
3.413442000000000007e+03,4.593570976139105255e-04,1.672267421139084220e-01
3.415371000000000095e+03,6.494332505289079904e-04,1.731706449763286138e-01
3.417298999999999978e+03,8.441433683685772849e-04,1.799635799817274062e-01
3.419228000000000065e+03,1.043689432583150278e-03,1.848363627186553337e-01
3.421155999999999949e+03,1.247864552490263179e-03,1.922034299157528991e-01
3.423085000000000036e+03,1.456880528007076236e-03,2.015058065024764034e-01
3.425012999999999920e+03,1.670520649981632744e-03,2.109432497603984658e-01
3.426942000000000007e+03,1.889006536798021330e-03,2.212419303229520295e-01
3.428869999999999891e+03,2.112111660840909622e-03,2.321692566883237774e-01
3.430798999999999978e+03,2.340067458958650093e-03,2.461928685316037146e-01
3.432726999999999862e+03,2.572637585067205634e-03,2.672584917375870894e-01
3.434655999999999949e+03,2.810063294485409813e-03,2.889711498426597025e-01
3.436583999999999833e+03,3.052098422664073496e-03,3.125293258028274401e-01
3.438512999999999920e+03,3.298994043382741381e-03,3.383766749204211166e-01
3.440440999999999804e+03,3.550494173626184136e-03,3.635892587288385158e-01
3.442369999999999891e+03,3.806859705647980263e-03,3.782767064457144279e-01
3.444297999999999774e+03,4.067824837959754802e-03,3.820947131889851356e-01
3.446226999999999862e+03,4.333660281280238280e-03,3.752416796330426685e-01
3.448155000000000200e+03,4.604090415659456426e-03,3.638642773747422510e-01
3.450083999999999833e+03,4.879395770282179967e-03,3.564709488004007554e-01
3.452012000000000171e+03,5.159290906728841719e-03,3.538504564081028647e-01
3.453940999999999804e+03,5.444066172650252611e-03,3.519669973401078344e-01
3.455869000000000142e+03,5.733426311164357969e-03,3.504762961697447388e-01
3.457797999999999774e+03,6.027671488388897103e-03,3.475589678609622979e-01
3.459726000000000113e+03,6.326496628970446068e-03,3.428645383247763689e-01
3.461655000000000200e+03,6.630211717494560730e-03,3.360543353738321137e-01
3.463583000000000084e+03,6.938501860143553301e-03,3.204421400967691902e-01
3.465512000000000171e+03,7.251686859969908028e-03,2.960555708540675290e-01
3.467440000000000055e+03,7.569442004685456027e-03,2.700502264624407012e-01
3.469369000000000142e+03,7.892096915811386282e-03,2.467158375226317091e-01
3.471297000000000025e+03,8.219317062594377887e-03,2.310319401547644702e-01
3.473226000000000113e+03,8.551441885022548206e-03,2.181804138298835127e-01
3.475153999999999996e+03,8.888127033873871596e-03,2.067212353551495241e-01
3.477083000000000084e+03,9.229721767600729265e-03,1.992429919593496912e-01
3.479010999999999967e+03,9.575871918520384440e-03,1.954045713670069517e-01
3.480940000000000055e+03,9.926936563549482173e-03,1.883110965897381028e-01
3.482867999999999938e+03,1.028255171653480460e-02,1.790494157510260642e-01
3.484797000000000025e+03,1.064308627286436604e-02,1.716422555040026943e-01
3.486724999999999909e+03,1.100816642791802025e-02,1.668877794341296905e-01
3.488653999999999996e+03,1.137817089554893357e-02,1.628702925054565931e-01
3.490581999999999880e+03,1.175271605266914321e-02,1.569888248922612917e-01
3.492510999999999967e+03,1.213219043160140842e-02,1.513073079231506135e-01
3.494438999999999851e+03,1.251620059078906166e-02,1.471423329660490609e-01
3.496367999999999938e+03,1.290514488102090240e-02,1.430469256473205775e-01
3.498295999999999822e+03,1.329862004227599925e-02,1.395988779399677249e-01
3.500224999999999909e+03,1.369703424381008006e-02,1.372882516567299760e-01
3.502152999999999793e+03,1.409997440713350869e-02,1.351283114313210909e-01
3.504081999999999880e+03,1.450785851996627684e-02,1.327709643520771365e-01
3.506010000000000218e+03,1.492026368535714909e-02,1.314397040305426145e-01
3.507938999999999851e+03,1.533761770949304548e-02,1.298613640996575391e-01
3.509867000000000189e+03,1.575948787695047315e-02,1.281689283396012513e-01
3.511795999999999822e+03,1.618631181238505690e-02,1.274791752429322855e-01
3.513724000000000160e+03,1.661764698191081635e-02,1.272499261229502743e-01
3.515652999999999793e+03,1.705394082864764016e-02,1.272417070263220928e-01
3.517581000000000131e+03,1.749474100024084322e-02,1.268940340665003497e-01
3.519510000000000218e+03,1.794050475827813074e-02,1.265879611261193638e-01
3.521438000000000102e+03,1.839076993193700105e-02,1.269603196564408343e-01
3.523367000000000189e+03,1.884600360127652863e-02,1.253130576764283077e-01
3.525295000000000073e+03,1.930573377700373072e-02,1.241446294191215216e-01
3.527224000000000160e+03,1.977043735764283383e-02,1.222376957521849050e-01
3.529152000000000044e+03,2.023963253543836771e-02,1.197864430838575522e-01
3.531081000000000131e+03,2.071380602737793453e-02,1.185287593168822262e-01
3.533009000000000015e+03,2.119246620724002383e-02,1.192703760352631370e-01
3.534938000000000102e+03,2.167610961048183071e-02,1.183350656549304603e-01
3.536865999999999985e+03,2.216423479241136363e-02,1.176631694417724638e-01
3.538795000000000073e+03,2.265734810695274604e-02,1.150961131210843646e-01
3.540722999999999956e+03,2.315493829094972256e-02,1.127834735796655607e-01
3.542652000000000044e+03,2.365752151679334503e-02,1.096907121704231436e-01
3.544579999999999927e+03,2.416457670285687698e-02,1.057109432574083741e-01
3.546509000000000015e+03,2.467662984000007498e-02,1.030675186668599252e-01
3.548436999999999898e+03,2.519315002813193871e-02,1.018919682434269447e-01
3.550365999999999985e+03,2.571467307657737678e-02,9.930581491001211347e-02
3.552293999999999869e+03,2.624065826677668412e-02,9.505443082492215368e-02
3.554222999999999956e+03,2.677165122652080953e-02,9.145086072480479444e-02
3.556150999999999840e+03,2.730710141878933683e-02,9.144778775982853602e-02
3.558079999999999927e+03,2.784756428983481413e-02,9.058169007162275577e-02
3.560007999999999811e+03,2.839247948416812051e-02,8.801963947032342972e-02
3.561936999999999898e+03,2.894241226651494969e-02,8.455296241530030343e-02
3.563864999999999782e+03,2.949679246291747603e-02,8.109673830010466489e-02
3.565793999999999869e+03,3.005619515656476892e-02,7.517972711325571211e-02
3.567722000000000207e+03,3.062004035503385069e-02,7.066076923086006545e-02
3.569650999999999840e+03,3.118891295998338364e-02,7.159776364025249862e-02
3.571579000000000178e+03,3.176222316051813266e-02,7.232916567663316698e-02
3.573507999999999811e+03,3.234056567676812932e-02,7.041041215895527117e-02
3.575436000000000149e+03,3.292334087937209830e-02,6.939614754181144818e-02
3.577364999999999782e+03,3.351115330692344685e-02,6.732202481439042430e-02
3.579293000000000120e+03,3.410339351159485943e-02,6.645350721479692524e-02
3.581222000000000207e+03,3.470067585044489533e-02,6.613808990357439299e-02
3.583150000000000091e+03,3.530238105718375152e-02,6.679670629614076205e-02
3.585079000000000178e+03,3.590913330733691566e-02,6.615394485743619768e-02
3.587007000000000062e+03,3.652030351614232728e-02,6.069581369997445464e-02
3.588936000000000149e+03,3.713652567759506695e-02,6.013298447327075635e-02
3.590864000000000033e+03,3.775716088846792218e-02,6.549235795427099660e-02
3.592793000000000120e+03,3.838285296122290191e-02,6.618006999153047687e-02
3.594721000000000004e+03,3.901295317416320074e-02,6.568655635585418651e-02
3.596650000000000091e+03,3.964811515821775600e-02,6.574829633988832356e-02
3.598577999999999975e+03,4.028768037322549844e-02,6.602168822427856298e-02
3.600507000000000062e+03,4.093231226858229377e-02,6.647875124417579329e-02
3.602434999999999945e+03,4.158134248565747981e-02,6.782233293496675586e-02
3.604364000000000033e+03,4.223544429231296249e-02,6.742308926452533768e-02
3.606291999999999916e+03,4.289393951145736850e-02,6.511748409318629527e-02
3.608221000000000004e+03,4.355751122941420306e-02,6.272298793244068804e-02
3.610148999999999887e+03,4.422547145062516449e-02,6.503634018406723172e-02
3.612077999999999975e+03,4.489851307988246276e-02,6.544605760367128156e-02
3.614005999999999858e+03,4.557593830316175598e-02,6.384263747134610867e-02
3.615934999999999945e+03,4.625844984371951796e-02,6.647793806215984702e-02
3.617862999999999829e+03,4.694534006906536661e-02,6.781004578801486105e-02
3.619791999999999916e+03,4.763732152092536865e-02,6.515370101585959972e-02
3.621719999999999800e+03,4.833367674833866090e-02,6.775498035726768009e-02
3.623648999999999887e+03,4.903512811149823847e-02,7.180829400311017352e-02
3.625577000000000226e+03,4.974094834097897433e-02,7.543195784887624100e-02
3.627505999999999858e+03,5.045186961544079196e-02,7.833778705557170596e-02
3.629434000000000196e+03,5.116715484698897143e-02,7.547933425712693989e-02
3.631362999999999829e+03,5.188754603275036459e-02,8.116050760852289159e-02
3.633291000000000167e+03,5.261229626636509948e-02,8.919623418623290334e-02
3.635219999999999800e+03,5.334215736342873271e-02,9.561605956088969904e-02
3.637148000000000138e+03,5.407637259911179939e-02,1.043963411278392428e-01
3.639077000000000226e+03,5.481570360747500814e-02,1.118180581110324034e-01
3.641005000000000109e+03,5.555938384522463025e-02,1.200766750111728065e-01
3.642934000000000196e+03,5.630818476489096724e-02,1.261292647912024556e-01
3.644862000000000080e+03,5.706133000470803296e-02,1.315380367302512177e-01
3.646791000000000167e+03,5.781960083567305730e-02,1.301961687055204209e-01
3.648719000000000051e+03,5.858221107755756663e-02,1.227190864949263549e-01
3.650648000000000138e+03,5.934995181982483103e-02,1.101831704251616806e-01
3.652576000000000022e+03,6.012202706377678396e-02,9.908639163616639323e-02
3.654505000000000109e+03,6.089923771734362390e-02,8.656583957824182107e-02
3.656432999999999993e+03,6.168077796336479679e-02,6.256427077320925179e-02
3.658362000000000080e+03,6.246745852823298861e-02,4.767099059326662669e-02
3.660289999999999964e+03,6.325846377631894057e-02,4.008573439838780672e-02
3.662219000000000051e+03,6.405461425248937246e-02,3.100684970727929368e-02
3.664146999999999935e+03,6.485508450264365621e-02,2.212231662729990944e-02
3.666076000000000022e+03,6.566070489011277544e-02,1.734357896162830315e-02
3.668003999999999905e+03,6.647064014233450280e-02,1.427313585567846488e-02
3.669932999999999993e+03,6.728573044110675028e-02,8.313077530582191343e-03
3.671860999999999876e+03,6.810513069539592124e-02,1.100829824854132610e-02
3.673789999999999964e+03,6.892969090546685607e-02,1.476652812973533457e-02
3.675717999999999847e+03,6.975855616182347063e-02,4.807471031322396726e-03
3.677646999999999935e+03,7.059258628319664552e-02,7.056070488951071695e-04
3.679574999999999818e+03,7.143091654162070370e-02,-5.635889587685127822e-05
3.681503999999999905e+03,7.227441657429345412e-02,9.841045655836211381e-04
3.683431999999999789e+03,7.312221183478584408e-02,3.094339974985871322e-03
3.685360999999999876e+03,7.397518177875994638e-02,3.708434040448960189e-03
3.687289000000000215e+03,7.483244204131889177e-02,2.001543182496234863e-03
3.689217999999999847e+03,7.569488189659345778e-02,-6.707795536626370847e-03
3.691146000000000186e+03,7.656160716121984677e-02,-6.403290901209057751e-03
3.693074999999999818e+03,7.743351692779665285e-02,-1.247697097908950781e-03
3.695003000000000156e+03,7.830970719449048545e-02,2.830480301629023643e-03
3.696931999999999789e+03,7.919108687236775523e-02,2.819219205734579958e-03
3.698860000000000127e+03,8.007674214112903144e-02,1.300609320967982541e-03
