wavenumber (/cm),baseline value (/cm),baseline-subtracted absorbance (/cm),
3.199378999999999905e+03,3.978084062826958700e-03,2.886579864025407005e-15
3.201307999999999993e+03,4.119558111454146854e-03,-4.266623281345971463e-06
3.203235999999999876e+03,4.265691320500586414e-03,-6.697392499721566139e-04
3.205164999999999964e+03,4.416635280428238275e-03,5.659809733742360294e-04
3.207092999999999847e+03,4.572233491540345085e-03,9.765962098315927875e-04
3.209021000000000186e+03,4.732562976696108592e-03,1.034184400220627964e-03
3.210949999999999818e+03,4.897710575949787426e-03,1.628023576902837277e-03
3.212878000000000156e+03,5.067505063173882718e-03,2.728794682278490313e-03
3.214806999999999789e+03,5.242122573726248902e-03,2.350849426025147793e-03
3.216735999999999876e+03,5.421476267557956419e-03,2.450877367507597882e-03
3.218664000000000215e+03,5.605469484871505870e-03,2.069144037199599495e-03
3.220592999999999847e+03,5.794293090003677094e-03,2.432254373831987948e-03
3.222521000000000186e+03,5.987751309386446508e-03,2.484962417564684500e-03
3.224449000000000069e+03,6.185940802811096262e-03,2.729437604092499470e-03
3.226378000000000156e+03,6.388968047269294459e-03,4.296137807328292979e-03
3.228306000000000040e+03,6.596622542761387820e-03,4.717402415331140020e-03
3.230235000000000127e+03,6.809119698518273367e-03,4.044546409384786045e-03
3.232164000000000215e+03,7.026353037553612069e-03,5.053177601298974864e-03
3.234092000000000098e+03,7.248206263137824124e-03,6.868637345231132230e-03
3.236021000000000186e+03,7.474909513472738354e-03,7.693961163872220510e-03
3.237949000000000069e+03,7.706227741124394015e-03,8.494492442646439656e-03
3.239876999999999953e+03,7.942277242820594552e-03,9.255835379020860287e-03
3.241806000000000040e+03,8.183184132479759398e-03,9.398302177820117009e-03
3.243733999999999924e+03,8.428698636242515363e-03,9.858381515244429849e-03
3.245663000000000011e+03,8.679075437202143917e-03,9.865967090891381019e-03
3.247592000000000098e+03,8.934188421441113803e-03,1.139361936399385655e-02
3.249519999999999982e+03,9.193901655295100284e-03,1.292660495673669807e-02
3.251447999999999865e+03,9.458346163191855283e-03,1.300455816411894006e-02
3.253376999999999953e+03,9.727662786755963964e-03,1.315648696180060639e-02
3.255304999999999836e+03,1.000157229672016257e-02,1.509434873140436117e-02
3.257233999999999924e+03,1.028035883158295860e-02,1.586665799339992411e-02
3.259161999999999807e+03,1.056373334361548899e-02,1.736542789063033609e-02
3.261090999999999894e+03,1.085198978978052509e-02,1.839895700353899599e-02
3.263019999999999982e+03,1.114498241922134980e-02,2.013582716667294825e-02
3.264947999999999865e+03,1.144255566134422253e-02,2.209472626576802767e-02
3.266876000000000204e+03,1.174486017751164013e-02,2.340507463344021488e-02
3.268804999999999836e+03,1.205205644627849182e-02,2.433553900911333834e-02
3.270733000000000175e+03,1.236382596451335303e-02,2.690698796731716413e-02
3.272661999999999807e+03,1.268049214457889207e-02,2.884834624866594588e-02
3.274590999999999894e+03,1.300189450792377244e-02,3.050279289506874214e-02
3.276518999999999778e+03,1.332786275624897598e-02,3.210548920252653815e-02
3.278447999999999865e+03,1.365873503089343188e-02,3.231382348403788463e-02
3.280376000000000204e+03,1.399416828128696721e-02,3.299037260155879281e-02
3.282304000000000087e+03,1.433433280572504742e-02,3.572868327424005841e-02
3.284233000000000175e+03,1.467940871969375394e-02,3.811068254497351759e-02
3.286161000000000058e+03,1.502903824619750139e-02,4.027331476801987442e-02
3.288090000000000146e+03,1.538358407146755980e-02,4.364758250207190216e-02
3.290018999999999778e+03,1.574286608001429499e-02,4.615134140741350421e-02
3.291947000000000116e+03,1.610669433661016114e-02,4.632392589062006572e-02
3.293875000000000000e+03,1.647525386724968399e-02,4.817613993668623529e-02
3.295804000000000087e+03,1.684873951512244616e-02,5.075571817408075503e-02
3.297731999999999971e+03,1.722676404782852444e-02,5.334069109589778535e-02
3.299661000000000058e+03,1.760971960700086214e-02,5.603403776557014382e-02
3.301588999999999942e+03,1.799720914177438402e-02,5.932600436787960341e-02
3.303518000000000029e+03,1.838963461224896179e-02,6.219489385363519141e-02
3.305447000000000116e+03,1.878679626599932817e-02,6.408773033734083135e-02
3.307375000000000000e+03,1.918848453086408057e-02,6.709542929542267053e-02
3.309302999999999884e+03,1.959490406977426602e-02,7.049015211697651218e-02
3.311231999999999971e+03,2.000626936284888302e-02,7.304861360728831521e-02
3.313159999999999854e+03,2.042215390382473572e-02,7.624947954746974510e-02
3.315088999999999942e+03,2.084298910820070461e-02,8.047414009028441839e-02
3.317016999999999825e+03,2.126833865124488909e-02,8.445681190441400865e-02
3.318945999999999913e+03,2.169864376692132169e-02,8.860339882325662941e-02
3.320875000000000000e+03,2.213368506587531925e-02,9.422876604233842990e-02
3.322802999999999884e+03,2.257323333901162243e-02,1.013098609678113604e-01
3.324731000000000222e+03,2.301751288618891778e-02,1.098681889825636748e-01
3.326659999999999854e+03,2.346675782446805414e-02,1.174583058124596402e-01
3.328588000000000193e+03,2.392050237371368127e-02,1.244243166490714980e-01
3.330516999999999825e+03,2.437921722329416951e-02,1.320319704590797727e-01
3.332445000000000164e+03,2.484242677460724025e-02,1.410233458708263221e-01
3.334373999999999796e+03,2.531061153548641585e-02,1.522755311354020424e-01
3.336302000000000135e+03,2.578328608886781836e-02,1.647261197595208948e-01
3.338231000000000222e+03,2.626094076105012221e-02,1.778084079693154074e-01
3.340159000000000106e+03,2.674308031649808015e-02,1.910349044106389726e-01
3.342088000000000193e+03,2.723020489997907134e-02,2.047897243233398612e-01
3.344016000000000076e+03,2.772180945749447289e-02,2.190805125143187038e-01
3.345945000000000164e+03,2.821840395227859233e-02,2.355141346955142989e-01
3.347873000000000047e+03,2.871947351186143749e-02,2.531632482861143618e-01
3.349802000000000135e+03,2.922553791794513245e-02,2.688724939936457670e-01
3.351730000000000018e+03,2.973607247959453304e-02,2.851447246893381582e-01
3.353659000000000106e+03,3.025160679698046806e-02,2.988953479431943894e-01
3.355586999999999989e+03,3.077160636069820043e-02,3.098253390667555784e-01
3.357516000000000076e+03,3.129661058938282281e-02,3.167138817431431885e-01
3.359443999999999960e+03,3.182607515516977514e-02,3.204272929456557506e-01
3.361373000000000047e+03,3.236054929515574941e-02,3.192871815051170348e-01
3.363302000000000135e+03,3.289975961841840046e-02,3.132838872431942256e-01
3.365230000000000018e+03,3.344342291429569514e-02,3.055762579697918202e-01
3.367157999999999902e+03,3.399181748421575833e-02,2.933698886063036415e-01
3.369086999999999989e+03,3.454523144680354818e-02,2.786896974660912907e-01
3.371014999999999873e+03,3.510309101879016680e-02,2.622986597727909874e-01
3.372943999999999960e+03,3.566597489268019672e-02,2.454909755015581840e-01
3.374871999999999844e+03,3.623329946673514712e-02,2.292733125653003690e-01
3.376800999999999931e+03,3.680565325192475257e-02,2.143044231123887311e-01
3.378728999999999814e+03,3.738244282804625840e-02,1.987717137498390407e-01
3.380657999999999902e+03,3.796426652453810391e-02,1.822545824231243117e-01
3.382585999999999785e+03,3.855052110272794152e-02,1.688310521263027830e-01
3.384514999999999873e+03,3.914181471051847439e-02,1.571694164312209541e-01
3.386443000000000211e+03,3.973753429077575561e-02,1.476722875258253964e-01
3.388371999999999844e+03,4.033829780986852853e-02,1.369125868986431627e-01
3.390300000000000182e+03,4.094348239219414154e-02,1.279554435406300428e-01
3.392228999999999814e+03,4.155371582258737817e-02,1.220279567421358458e-01
3.394157000000000153e+03,4.216836540697777025e-02,1.160985371819585055e-01
3.396085999999999785e+03,4.278806874867235877e-02,1.116922814096437122e-01
3.398014000000000124e+03,4.341218333513197081e-02,1.080747478128158967e-01
3.399943000000000211e+03,4.404135658812702303e-02,1.038564518181557261e-01
3.401871000000000095e+03,4.467493617665496686e-02,1.012411251631353259e-01
3.403800000000000182e+03,4.531357934095048279e-02,9.982828444498093035e-02
3.405728000000000065e+03,4.595662393154409386e-02,9.911911953402974262e-02
3.407657000000000153e+03,4.660473700714007350e-02,9.980831321946936896e-02
3.409585000000000036e+03,4.725724659980290454e-02,1.006026900736927132e-01
3.411514000000000124e+03,4.791482958670023606e-02,1.031250909447456454e-01
3.413442000000000007e+03,4.857680418142873435e-02,1.061329493418841086e-01
3.415371000000000095e+03,4.924385707962830594e-02,1.092139562934391073e-01
3.417298999999999978e+03,4.991529667642424783e-02,1.154804939736036040e-01
3.419228000000000065e+03,5.059181948592339495e-02,1.220262968610064114e-01
3.421155999999999949e+03,5.127272408478678045e-02,1.280766271289710545e-01
3.423085000000000036e+03,5.195871680558816763e-02,1.357059631472272709e-01
3.425012999999999920e+03,5.264908640651899674e-02,1.460136068324453529e-01
3.426942000000000007e+03,5.334454903861907127e-02,1.558455546430097538e-01
3.428869999999999891e+03,5.404438364161912034e-02,1.688996779465103959e-01
3.430798999999999978e+03,5.474931618502054675e-02,1.854909520213490204e-01
3.432726999999999862e+03,5.545861579008626308e-02,2.034784922995640510e-01
3.434655999999999949e+03,5.617301824478904138e-02,2.236677342230819487e-01
3.436583999999999833e+03,5.689178285192308948e-02,2.476723817969872510e-01
3.438512999999999920e+03,5.761565521792633149e-02,2.744222785996683900e-01
3.440440999999999804e+03,5.834388482712693502e-02,3.020695999931375386e-01
3.442369999999999891e+03,5.907722710443241709e-02,3.204729684627121156e-01
3.444297999999999774e+03,5.981492171570046423e-02,3.233029773344018309e-01
3.446226999999999862e+03,6.055773390430552183e-02,3.151022276031132385e-01
3.448155000000000200e+03,6.130489351764190076e-02,3.026576693432259102e-01
3.450083999999999833e+03,6.205717561754831024e-02,2.912569114253520386e-01
3.452012000000000171e+03,6.281380023295124460e-02,2.834123747220371747e-01
3.453940999999999804e+03,6.357555224415722961e-02,2.795339653568857941e-01
3.455869000000000142e+03,6.434164186162849575e-02,2.777015691646331774e-01
3.457797999999999774e+03,6.511286378413672082e-02,2.739645559712489131e-01
3.459726000000000113e+03,6.588841840367543057e-02,2.682225271479479201e-01
3.461655000000000200e+03,6.666911023748323117e-02,2.603793779974454825e-01
3.463583000000000084e+03,6.745412985908849635e-02,2.458782722021271017e-01
3.465512000000000171e+03,6.824429160419853702e-02,2.237610476892761824e-01
3.467440000000000055e+03,6.903877622787124579e-02,2.007935947909402774e-01
3.469369000000000142e+03,6.983840788428175017e-02,1.789496966665344857e-01
3.471297000000000025e+03,7.064235751002279073e-02,1.623259171531670209e-01
3.473226000000000113e+03,7.145145907773375882e-02,1.538471688480125277e-01
3.475153999999999996e+03,7.226487370554135481e-02,1.458862407167593744e-01
3.477083000000000084e+03,7.308344518455278660e-02,1.371524770852674546e-01
3.479010999999999967e+03,7.390632481442871438e-02,1.330853558213196397e-01
3.480940000000000055e+03,7.473436620474149805e-02,1.281044616340860642e-01
3.482867999999999938e+03,7.556671083668398126e-02,1.198182149719706491e-01
3.484797000000000025e+03,7.640422213829811682e-02,1.125300921349992045e-01
3.486724999999999909e+03,7.724603177230804363e-02,1.059646840655263933e-01
3.488653999999999996e+03,7.809301298522264290e-02,1.006264878529221640e-01
3.490581999999999880e+03,7.894428762129912514e-02,9.466811692330878714e-02
3.492510999999999967e+03,7.980073874551596447e-02,8.830163910262456284e-02
3.494438999999999851e+03,8.066147838366077849e-02,8.347399066706229220e-02
3.496367999999999938e+03,8.152739941917630517e-02,7.909810501988734366e-02
3.498295999999999822e+03,8.239760405938945098e-02,7.823752352489043993e-02
3.500224999999999909e+03,8.327299500620632955e-02,7.910299059011816070e-02
3.502152999999999793e+03,8.415266464848603079e-02,7.849307943793593090e-02
3.504081999999999880e+03,8.503752550660337306e-02,7.630909397560925456e-02
3.506010000000000218e+03,8.592666015095051790e-02,7.386038895813240579e-02
3.507938999999999851e+03,8.682099092037010024e-02,7.299523804840113428e-02
3.509867000000000189e+03,8.771959056678468869e-02,7.255109919543034636e-02
3.511795999999999822e+03,8.862339124750473474e-02,7.139275080253559835e-02
3.513724000000000160e+03,8.953145589598587861e-02,7.148611410463479032e-02
3.515652999999999793e+03,9.044472648800727654e-02,7.138367110310195329e-02
3.517581000000000131e+03,9.136225613855675221e-02,7.114969518695390960e-02
3.519510000000000218e+03,9.228499664187772566e-02,7.093006513250621481e-02
3.521438000000000102e+03,9.321199129449553311e-02,7.026382667284769568e-02
3.523367000000000189e+03,9.414420170911785846e-02,6.951321432117940624e-02
3.525295000000000073e+03,9.508066136380133315e-02,7.102351694376674018e-02
3.527224000000000160e+03,9.602234168972589856e-02,7.304949043295372313e-02
3.529152000000000044e+03,9.696826634647681686e-02,7.114932227958625788e-02
3.531081000000000131e+03,9.791941658370006962e-02,6.848401049769314852e-02
3.533009000000000015e+03,9.887480624251931971e-02,6.882588289884750132e-02
3.534938000000000102e+03,9.983542639104481253e-02,6.914452021602035536e-02
3.536865999999999985e+03,1.008002810519306180e-01,6.786365388319071101e-02
3.538795000000000073e+03,1.017703711117565746e-01,6.511980086316127014e-02
3.540722999999999956e+03,1.027446907747098237e-01,6.260639881366780735e-02
3.542652000000000044e+03,1.037242507458371321e-01,6.226631236336999109e-02
3.544579999999999927e+03,1.047080354108587130e-01,6.181894043815083783e-02
3.546509000000000015e+03,1.056970652932855970e-01,5.978036687906174151e-02
3.548436999999999898e+03,1.066903149603755097e-01,5.752151840400010485e-02
3.550365999999999985e+03,1.076888147541028573e-01,5.505191908832585135e-02
3.552293999999999869e+03,1.086915294232593254e-01,5.079068327929214810e-02
3.554222999999999956e+03,1.096994991282889131e-01,4.719129369470720370e-02
3.556150999999999840e+03,1.107116787995119367e-01,4.653858506092101166e-02
3.558079999999999927e+03,1.117291184158419881e-01,4.447222261600725091e-02
3.560007999999999811e+03,1.127507630891324553e-01,4.131268758448758405e-02
3.561936999999999898e+03,1.137776726167647467e-01,4.127603074202323974e-02
3.563864999999999782e+03,1.148087822921226575e-01,4.243247927117255180e-02
3.565793999999999869e+03,1.158451617310536363e-01,4.497870366908274242e-02
3.567722000000000207e+03,1.168857364084798789e-01,4.144045717195088407e-02
3.569650999999999840e+03,1.179315857587130978e-01,3.364505793657457389e-02
3.571579000000000178e+03,1.189816254382067839e-01,3.114254417748818504e-02
3.573507999999999811e+03,1.200369446997386902e-01,3.042372457448982992e-02
3.575436000000000149e+03,1.210964493812998199e-01,2.888182093595337285e-02
3.577364999999999782e+03,1.221612385541339663e-01,2.716141619224954340e-02
3.579293000000000120e+03,1.232302082377625396e-01,2.696691102715309540e-02
3.581222000000000207e+03,1.243044673218971496e-01,2.612609082052519405e-02
3.583150000000000091e+03,1.253829020075922784e-01,2.544189466466173499e-02
3.585079000000000178e+03,1.264666310030300167e-01,2.776351737966065159e-02
3.587007000000000062e+03,1.275545306907917009e-01,3.294897710085153975e-02
3.588936000000000149e+03,1.286477295975281265e-01,2.962196680776130187e-02
3.590864000000000033e+03,1.297450942873599189e-01,2.794783425302616031e-02
3.592793000000000120e+03,1.308477631053968082e-01,3.232197675925818636e-02
3.594721000000000004e+03,1.319545927972942678e-01,3.497314048637090167e-02
3.596650000000000091e+03,1.330667315266342854e-01,3.270591390702803913e-02
3.598577999999999975e+03,1.341830262205991886e-01,3.247898408547866822e-02
3.600507000000000062e+03,1.353046348612378935e-01,3.450973156329806280e-02
3.602434999999999945e+03,1.364303945572702403e-01,3.413333549798513999e-02
3.604364000000000033e+03,1.375614731092111853e-01,3.472604163593051574e-02
3.606291999999999916e+03,1.386966978073109757e-01,4.040959138372368642e-02
3.608221000000000004e+03,1.398372462705514963e-01,4.325457716025504773e-02
3.610148999999999887e+03,1.409819359707187303e-01,4.270745373562001568e-02
3.612077999999999975e+03,1.421319543452614909e-01,4.367856282118776079e-02
3.614005999999999858e+03,1.432861090474961685e-01,4.609149075383234262e-02
3.615934999999999945e+03,1.444455973333385046e-01,4.809708597205664127e-02
3.617862999999999829e+03,1.456092170376424022e-01,4.787498237876053331e-02
3.619791999999999916e+03,1.467781752347852020e-01,4.306692316963500744e-02
3.621719999999999800e+03,1.479512599411547669e-01,4.354746732028424994e-02
3.623648999999999887e+03,1.491296880496006949e-01,4.723679857112328406e-02
3.625577000000000226e+03,1.503122377580359270e-01,5.184303634639064740e-02
3.627505999999999858e+03,1.515001357777823188e-01,5.946652468040336537e-02
3.629434000000000196e+03,1.526921504882867708e-01,6.692758006364707413e-02
3.631362999999999829e+03,1.538895184193336263e-01,6.952235219592672877e-02
3.633291000000000167e+03,1.550909981319055220e-01,7.421085820384898391e-02
3.635219999999999800e+03,1.562978359742519530e-01,7.950429974313788506e-02
3.637148000000000138e+03,1.575087806888912922e-01,8.825237905531935212e-02
3.639077000000000226e+03,1.587250884425390751e-01,9.508288324678826342e-02
3.641005000000000109e+03,1.599454981592467462e-01,1.025251667690449953e-01
3.642934000000000196e+03,1.611712758241949928e-01,1.116753126156135867e-01
3.644862000000000080e+03,1.624011505429692193e-01,1.205689866644559238e-01
3.646791000000000167e+03,1.636363981192197059e-01,1.268624533118352105e-01
3.648719000000000051e+03,1.648757378400604878e-01,1.320190904954456901e-01
3.650648000000000138e+03,1.661204553276105500e-01,1.161673698415703893e-01
3.652576000000000022e+03,1.673692600505196637e-01,8.901647286063685272e-02
3.654505000000000109e+03,1.686234474493719659e-01,7.455622598453870431e-02
3.656432999999999993e+03,1.698817171743476351e-01,5.619048745717880600e-02
3.658362000000000080e+03,1.711453744844995128e-01,3.989113138251476620e-02
3.660289999999999964e+03,1.724131092115452901e-01,3.018979635746177337e-02
3.662219000000000051e+03,1.736862364329976316e-01,2.139509466528255466e-02
3.664146999999999935e+03,1.749634361621081879e-01,1.355894541112068197e-02
3.666076000000000022e+03,1.762460332948618813e-01,8.941773248876794256e-03
3.668003999999999905e+03,1.775326980260416576e-01,1.028284800984335945e-02
3.669932999999999993e+03,1.788247650700958147e-01,1.104827149785592155e-02
3.671860999999999876e+03,1.801208948033421464e-01,1.207535527426384370e-02
3.673789999999999964e+03,1.814224317586985435e-01,2.184291871004173657e-02
3.675717999999999847e+03,1.827280264940114307e-01,3.633480333153005226e-02
3.677646999999999935e+03,1.840390333606674034e-01,1.895531692181839922e-02
3.679574999999999818e+03,1.853540930980486223e-01,5.280724062191932688e-03
3.681503999999999905e+03,1.866745698760068350e-01,-6.327868003255243678e-04
3.683431999999999789e+03,1.879990946154546094e-01,-3.640430680519335382e-03
3.685360999999999876e+03,1.893290413047123977e-01,-5.568564493388272751e-03
3.687289000000000215e+03,1.906630310462285038e-01,-2.004683743813462371e-03
3.689217999999999847e+03,1.920024476467876440e-01,1.602817144917612069e-03
3.691146000000000186e+03,1.933459023903720819e-01,-8.063233253694512825e-04
3.693074999999999818e+03,1.946947889022299094e-01,-1.933567073211683862e-03
3.695003000000000156e+03,1.960477086478809028e-01,-4.365831203291703488e-03
3.696931999999999789e+03,1.974060650710427467e-01,-6.237318563313332120e-03
3.698860000000000127e+03,1.987684498187611837e-01,-3.888894345985383083e-03
